Source File Name:	Analyzer
Signal:	FFT - Vib Velocity - Magnitude

Frequency	Magnitude
[ Hz ]	[ m/s ]
20	0.0004856381
20.625	0.0005358689
21.25	0.0005903748
21.875	0.0006573899
22.5	0.0007303855
23.125	0.0008264481
23.75	0.000918963
24.375	0.001078405
25	0.001211033
25.625	0.001385768
26.25	0.001609184
26.875	0.001866423
27.5	0.002152262
28.125	0.00236764
28.75	0.002310389
29.375	0.001806702
30	0.0013141
30.625	0.001012632
31.25	0.0008361891
31.875	0.0007152722
32.5	0.0006310136
33.125	0.0005689941
33.75	0.0005175109
34.375	0.0004792375
35	0.0004440281
35.625	0.0004193114
36.25	0.0003872747
36.875	0.000361459
37.5	0.0003366254
38.125	0.0003161229
38.75	0.000304434
39.375	0.0002847221
40	0.0002691328
40.625	0.0002567619
41.25	0.0002460254
41.875	0.000230883
42.5	0.000219029
43.125	0.0002132928
43.75	0.0002041881
44.375	0.0001944294
45	0.000185968
45.625	0.0001759042
46.25	0.000172383
46.875	0.0001685696
47.5	0.0001630916
48.125	0.0001638973
48.75	0.0001554065
49.375	0.0001460359
50	0.000145971
50.625	0.0001435092
51.25	0.000150271
51.875	0.0001421876
52.5	0.0001421293
53.125	0.0001435716
53.75	0.0001399341
54.375	0.0001291942
55	0.0001350739
55.625	0.0001295325
56.25	0.0001284312
56.875	0.000115836
57.5	0.0001155467
58.125	0.0001080219
58.75	9.348178e-5
59.375	8.068103e-5
60	9.333569e-5
60.625	8.524146e-5
61.25	7.169988e-5
61.875	6.759017e-5
62.5	6.800541e-5
63.125	6.603816e-5
63.75	5.800668e-5
64.375	5.936337e-5
65	5.460917e-5
65.625	5.378107e-5
66.25	5.190778e-5
66.875	4.58774e-5
67.5	4.781548e-5
68.125	4.399516e-5
68.75	4.503098e-5
69.375	4.401659e-5
70	4.262526e-5
70.625	4.021483e-5
71.25	3.686853e-5
71.875	3.821726e-5
72.5	3.61835e-5
73.125	3.995365e-5
73.75	3.017852e-5
74.375	3.422649e-5
75	2.965225e-5
75.625	2.836949e-5
76.25	2.333079e-5
76.875	2.445325e-5
77.5	2.356727e-5
78.125	2.010632e-5
78.75	1.548769e-5
79.375	1.126374e-5
80	1.389187e-5
80.625	1.968285e-5
81.25	1.848757e-5
81.875	1.746567e-5
82.5	2.140121e-5
83.125	1.837943e-5
83.75	2.413697e-5
84.375	2.887962e-5
85	2.774316e-5
85.625	2.49249e-5
86.25	2.090895e-5
86.875	1.778831e-5
87.5	2.24046e-5
88.125	2.884391e-5
88.75	3.191164e-5
89.375	3.523492e-5
90	3.522817e-5
90.625	3.511963e-5
91.25	3.032976e-5
91.875	3.708938e-5
92.5	4.082584e-5
93.125	4.126093e-5
93.75	4.106783e-5
94.375	4.314288e-5
95	4.357657e-5
95.625	4.634179e-5
96.25	4.818337e-5
96.875	5.462702e-5
97.5	5.81887e-5
98.125	5.401015e-5
98.75	5.153594e-5
99.375	5.482129e-5
100	5.576878e-5
100.625	5.973078e-5
101.25	6.497461e-5
101.875	7.084754e-5
102.5	6.890355e-5
103.125	6.870146e-5
103.75	7.00352e-5
104.375	7.224882e-5
105	7.789011e-5
105.625	8.337975e-5
106.25	8.448923e-5
106.875	8.636637e-5
107.5	8.522049e-5
108.125	8.608701e-5
108.75	8.956366e-5
109.375	9.886212e-5
110	9.834538e-5
110.625	0.0001017445
111.25	0.0001012155
111.875	0.0001043909
112.5	0.0001084424
113.125	0.0001075698
113.75	0.0001166347
114.375	0.0001182587
115	0.0001237283
115.625	0.0001211975
116.25	0.000123761
116.875	0.0001262145
117.5	0.0001292909
118.125	0.0001352807
118.75	0.0001415614
119.375	0.0001461795
120	0.0001441029
120.625	0.0001487451
121.25	0.0001540757
121.875	0.000157972
122.5	0.0001661286
123.125	0.0001693845
123.75	0.0001735764
124.375	0.0001732953
125	0.0001810228
125.625	0.0001839406
126.25	0.0001980367
126.875	0.0002043824
127.5	0.0002131208
128.125	0.0002170411
128.75	0.0002220343
129.375	0.0002317791
130	0.0002401851
130.625	0.0002530666
131.25	0.000262118
131.875	0.0002699887
132.5	0.0002778829
133.125	0.0002865216
133.75	0.0002979674
134.375	0.0003117915
135	0.000327146
135.625	0.0003444908
136.25	0.000357088
136.875	0.0003700833
137.5	0.0003824435
138.125	0.0004008731
138.75	0.0004165676
139.375	0.0004379363
140	0.0004604486
140.625	0.0004802201
141.25	0.0004966909
141.875	0.000517144
142.5	0.0005418595
143.125	0.0005617063
143.75	0.0005798167
144.375	0.0005994902
145	0.000611
145.625	0.0006225271
146.25	0.0006336806
146.875	0.0006534804
147.5	0.0006709407
148.125	0.0006873679
148.75	0.0007014391
149.375	0.0007176749
150	0.0007299082
150.625	0.0007364392
151.25	0.0007390839
151.875	0.0007434427
152.5	0.0007339836
153.125	0.0007195176
153.75	0.0006976155
154.375	0.0006668675
155	0.0006277165
155.625	0.0005884379
156.25	0.0005483947
156.875	0.0005113822
157.5	0.0004770163
158.125	0.0004511664
158.75	0.0004219496
159.375	0.0003941533
160	0.0003690206
160.625	0.0003467862
161.25	0.0003237977
161.875	0.0003086761
162.5	0.000293138
163.125	0.0002813191
163.75	0.0002661757
164.375	0.0002491988
165	0.0002364966
165.625	0.0002284018
166.25	0.0002209186
166.875	0.0002111998
167.5	0.0002042171
168.125	0.0001951967
168.75	0.0001823159
169.375	0.0001736713
170	0.0001662937
170.625	0.0001655408
171.25	0.0001586837
171.875	0.0001540645
172.5	0.0001475439
173.125	0.00013976
173.75	0.0001337068
174.375	0.0001239673
175	0.0001276306
175.625	0.0001214734
176.25	0.0001162253
176.875	0.0001045249
177.5	0.0001005406
178.125	9.354857e-5
178.75	8.761592e-5
179.375	8.226925e-5
180	7.831275e-5
180.625	7.2222e-5
181.25	5.856848e-5
181.875	5.117381e-5
182.5	4.485107e-5
183.125	3.996125e-5
183.75	3.394021e-5
184.375	3.148619e-5
185	3.323811e-5
185.625	3.718633e-5
186.25	4.413422e-5
186.875	6.11295e-5
187.5	7.078235e-5
188.125	8.653988e-5
188.75	9.258941e-5
189.375	0.0001070772
190	0.000122929
190.625	0.0001323727
191.25	0.0001460703
191.875	0.0001534133
192.5	0.0001674074
193.125	0.000180052
193.75	0.0001892128
194.375	0.00020575
195	0.0002188692
195.625	0.0002344736
196.25	0.0002423338
196.875	0.0002602504
197.5	0.000270436
198.125	0.000283911
198.75	0.0002897871
199.375	0.0003045279
200	0.0003180195
200.625	0.0003235321
201.25	0.0003304648
201.875	0.0003402339
202.5	0.0003448955
203.125	0.0003446951
203.75	0.0003500741
204.375	0.0003506998
205	0.0003520565
205.625	0.0003468327
206.25	0.0003410421
206.875	0.0003342125
207.5	0.0003235694
208.125	0.0003178019
208.75	0.000307955
209.375	0.0003056883
210	0.0002965774
210.625	0.0002875635
211.25	0.0002777628
211.875	0.0002693867
212.5	0.0002618652
213.125	0.0002583556
213.75	0.0002579373
214.375	0.0002463157
215	0.0002392407
215.625	0.0002287099
216.25	0.000223974
216.875	0.0002160112
217.5	0.0002169168
218.125	0.000217746
218.75	0.0002136085
219.375	0.0002066501
220	0.0002049289
220.625	0.0002025408
221.25	0.0002006566
221.875	0.0002021536
222.5	0.000200619
223.125	0.0002005556
223.75	0.0001951611
224.375	0.0001845019
225	0.000187205
225.625	0.0001856559
226.25	0.0001826546
226.875	0.0001781282
227.5	0.0001739917
228.125	0.0001665597
228.75	0.0001607929
229.375	0.0001545492
230	0.0001556613
230.625	0.0001553527
231.25	0.0001519267
231.875	0.0001443276
232.5	0.0001420614
233.125	0.0001341751
233.75	0.0001291
234.375	0.0001272642
235	0.0001307655
235.625	0.0001288973
236.25	0.0001176233
236.875	0.0001160652
237.5	0.0001118494
238.125	0.000111956
238.75	0.0001093328
239.375	0.000111478
240	0.0001100451
240.625	0.000103481
241.25	0.0001001208
241.875	9.731302e-5
242.5	9.945084e-5
243.125	9.871712e-5
243.75	0.0001000115
244.375	9.981693e-5
245	9.9075e-5
245.625	9.554959e-5
246.25	9.442606e-5
246.875	0.0001018547
247.5	0.000102497
248.125	0.0001079119
248.75	0.0001028617
249.375	0.0001050771
250	0.000104084
250.625	0.0001062059
251.25	0.0001102612
251.875	0.0001170217
252.5	0.0001191939
253.125	0.0001173009
253.75	0.0001169642
254.375	0.0001136208
255	0.0001145614
255.625	0.0001154516
256.25	0.0001187354
256.875	0.0001222958
257.5	0.0001168549
258.125	0.0001154186
258.75	0.0001132655
259.375	0.0001122952
260	0.0001136561
260.625	0.0001138866
261.25	0.0001120605
261.875	0.0001056571
262.5	9.904208e-5
263.125	9.578195e-5
263.75	9.708935e-5
264.375	9.440089e-5
265	9.279161e-5
265.625	9.224625e-5
266.25	8.922532e-5
266.875	8.175407e-5
267.5	7.919264e-5
268.125	7.768621e-5
268.75	7.851511e-5
269.375	7.466236e-5
270	7.43744e-5
270.625	6.868952e-5
271.25	6.951042e-5
271.875	6.567067e-5
272.5	6.906461e-5
273.125	7.179266e-5
273.75	7.439225e-5
274.375	6.733066e-5
275	6.542367e-5
275.625	6.637917e-5
276.25	6.439963e-5
276.875	6.424096e-5
277.5	6.475897e-5
278.125	7.037952e-5
278.75	6.603503e-5
279.375	6.567626e-5
280	6.511696e-5
280.625	6.791537e-5
281.25	7.228909e-5
281.875	6.941854e-5
282.5	7.46216e-5
283.125	7.273418e-5
283.75	7.065973e-5
284.375	6.737201e-5
285	7.32439e-5
285.625	7.845599e-5
286.25	7.521085e-5
286.875	7.902971e-5
287.5	7.557143e-5
288.125	7.813359e-5
288.75	7.307177e-5
289.375	7.664446e-5
290	7.60063e-5
290.625	7.810976e-5
291.25	7.399134e-5
291.875	7.106167e-5
292.5	7.001682e-5
293.125	6.525462e-5
293.75	6.438311e-5
294.375	6.383158e-5
295	6.336633e-5
295.625	5.936388e-5
296.25	5.439691e-5
296.875	5.372616e-5
297.5	4.986497e-5
298.125	5.041879e-5
298.75	4.765059e-5
299.375	4.961449e-5
300	4.508234e-5
300.625	4.360511e-5
301.25	4.199605e-5
301.875	3.97126e-5
302.5	3.969248e-5
303.125	3.747543e-5
303.75	4.063742e-5
304.375	4.292326e-5
305	3.914874e-5
305.625	3.914409e-5
306.25	3.938856e-5
306.875	4.155335e-5
307.5	3.883721e-5
308.125	3.84622e-5
308.75	3.714692e-5
309.375	3.401185e-5
310	3.398723e-5
310.625	3.118538e-5
311.25	3.961665e-5
311.875	3.491882e-5
312.5	3.847113e-5
313.125	3.50664e-5
313.75	3.709457e-5
314.375	3.462866e-5
315	2.924938e-5
315.625	3.223978e-5
316.25	3.052732e-5
316.875	3.057862e-5
317.5	2.552312e-5
318.125	2.753922e-5
318.75	2.711402e-5
319.375	2.65174e-5
320	2.695782e-5
320.625	2.688198e-5
321.25	3.124668e-5
321.875	2.434444e-5
322.5	2.655772e-5
323.125	2.150125e-5
323.75	2.615523e-5
324.375	2.094632e-5
325	2.026103e-5
325.625	2.469552e-5
326.25	2.244895e-5
326.875	2.086124e-5
327.5	1.934635e-5
328.125	2.358771e-5
328.75	2.23763e-5
329.375	2.255489e-5
330	1.707112e-5
330.625	1.9326e-5
331.25	1.813222e-5
331.875	1.593408e-5
332.5	1.867576e-5
333.125	2.425633e-5
333.75	2.18912e-5
334.375	1.915345e-5
335	1.759161e-5
335.625	2.401176e-5
336.25	2.058875e-5
336.875	2.18105e-5
337.5	2.538351e-5
338.125	2.52394e-5
338.75	2.596767e-5
339.375	2.251623e-5
340	2.45366e-5
340.625	2.838196e-5
341.25	2.982332e-5
341.875	2.795735e-5
342.5	2.94228e-5
343.125	3.010572e-5
343.75	2.448434e-5
344.375	2.990858e-5
345	3.074968e-5
345.625	3.6258e-5
346.25	3.222296e-5
346.875	3.264627e-5
347.5	3.373533e-5
348.125	3.207626e-5
348.75	3.429774e-5
349.375	3.089207e-5
350	3.657222e-5
350.625	3.523238e-5
351.25	3.695303e-5
351.875	3.315393e-5
352.5	3.844853e-5
353.125	3.449043e-5
353.75	3.701052e-5
354.375	3.88139e-5
355	3.721072e-5
355.625	3.846972e-5
356.25	3.50088e-5
356.875	3.831651e-5
357.5	3.549109e-5
358.125	3.617381e-5
358.75	3.667737e-5
359.375	3.801713e-5
360	3.778249e-5
360.625	3.613586e-5
361.25	4.086917e-5
361.875	3.409051e-5
362.5	3.771994e-5
363.125	3.28286e-5
363.75	3.900139e-5
364.375	3.823819e-5
365	3.378546e-5
365.625	3.472083e-5
366.25	3.541013e-5
366.875	3.394839e-5
367.5	3.186871e-5
368.125	3.556917e-5
368.75	3.628314e-5
369.375	3.591593e-5
370	2.990845e-5
370.625	2.9573e-5
371.25	3.080443e-5
371.875	2.683518e-5
372.5	3.016938e-5
373.125	3.255987e-5
373.75	3.58716e-5
374.375	2.911627e-5
375	2.600927e-5
375.625	2.718979e-5
376.25	2.944432e-5
376.875	2.884397e-5
377.5	2.824472e-5
378.125	3.039703e-5
378.75	2.627837e-5
379.375	2.443869e-5
380	2.46083e-5
380.625	2.94404e-5
381.25	3.176564e-5
381.875	3.005136e-5
382.5	2.861306e-5
383.125	2.712987e-5
383.75	2.273255e-5
384.375	2.195556e-5
385	2.092524e-5
385.625	2.903059e-5
386.25	2.54821e-5
386.875	2.289837e-5
387.5	2.145955e-5
388.125	2.132317e-5
388.75	2.142066e-5
389.375	2.398337e-5
390	2.702614e-5
390.625	2.367769e-5
391.25	2.201156e-5
391.875	1.661643e-5
392.5	1.56065e-5
393.125	1.728515e-5
393.75	1.659093e-5
394.375	2.209168e-5
395	2.069853e-5
395.625	2.061933e-5
396.25	1.376937e-5
396.875	1.697806e-5
397.5	1.603083e-5
398.125	1.900851e-5
398.75	1.943612e-5
399.375	2.089823e-5
400	1.518173e-5
400.625	7.52145e-6
401.25	1.309233e-5
401.875	1.174656e-5
402.5	1.846911e-5
403.125	1.492044e-5
403.75	1.629982e-5
404.375	1.326455e-5
405	1.084117e-5
405.625	1.038334e-5
406.25	1.135056e-5
406.875	1.802251e-5
407.5	1.254318e-5
408.125	1.191445e-5
408.75	1.059949e-5
409.375	9.091651e-6
410	8.308803e-6
410.625	9.842741e-6
411.25	1.639538e-5
411.875	1.424345e-5
412.5	1.275858e-5
413.125	7.774201e-6
413.75	1.048172e-5
414.375	1.237773e-5
415	1.234424e-5
415.625	1.303791e-5
416.25	1.565048e-5
416.875	1.13261e-5
417.5	7.668428e-6
418.125	6.616096e-6
418.75	1.176109e-5
419.375	1.347107e-5
420	1.540551e-5
420.625	1.594866e-5
421.25	1.527077e-5
421.875	1.227383e-5
422.5	7.748437e-6
423.125	1.286977e-5
423.75	1.462204e-5
424.375	1.597733e-5
425	9.256494e-6
425.625	1.078e-5
426.25	1.090485e-5
426.875	1.120946e-5
427.5	1.310678e-5
428.125	1.705529e-5
428.75	2.030143e-5
429.375	1.41078e-5
430	1.288695e-5
430.625	9.583431e-6
431.25	1.28415e-5
431.875	1.158494e-5
432.5	1.320661e-5
433.125	1.86554e-5
433.75	1.427333e-5
434.375	1.366897e-5
435	9.490656e-6
435.625	1.822284e-5
436.25	1.765472e-5
436.875	2.045385e-5
437.5	1.812531e-5
438.125	1.640774e-5
438.75	1.47163e-5
439.375	9.887046e-6
440	1.620955e-5
440.625	1.733652e-5
441.25	2.148147e-5
441.875	1.878487e-5
442.5	1.764533e-5
443.125	1.820542e-5
443.75	1.553411e-5
444.375	1.71822e-5
445	2.071578e-5
445.625	2.257246e-5
446.25	1.737202e-5
446.875	1.554724e-5
447.5	1.426508e-5
448.125	1.358756e-5
448.75	1.840933e-5
449.375	2.153163e-5
450	2.320472e-5
450.625	1.832675e-5
451.25	1.637497e-5
451.875	1.424183e-5
452.5	1.554896e-5
453.125	1.669952e-5
453.75	1.749604e-5
454.375	1.929233e-5
455	1.932808e-5
455.625	1.35494e-5
456.25	1.32607e-5
456.875	1.603718e-5
457.5	1.76741e-5
458.125	1.523525e-5
458.75	1.910391e-5
459.375	1.461303e-5
460	1.176432e-5
460.625	9.126372e-6
461.25	1.379871e-5
461.875	1.844354e-5
462.5	1.596814e-5
463.125	1.744365e-5
463.75	1.171413e-5
464.375	1.437632e-5
465	9.702565e-6
465.625	1.103625e-5
466.25	1.576149e-5
466.875	1.837718e-5
467.5	1.598321e-5
468.125	1.141559e-5
468.75	1.504392e-5
469.375	1.015877e-5
470	1.550408e-5
470.625	1.482459e-5
471.25	1.823872e-5
471.875	1.837687e-5
472.5	1.011851e-5
473.125	1.13908e-5
473.75	1.270026e-5
474.375	1.791473e-5
475	1.432778e-5
475.625	1.832092e-5
476.25	1.697481e-5
476.875	1.568479e-5
477.5	1.059978e-5
478.125	1.27346e-5
478.75	1.743806e-5
479.375	1.508307e-5
480	1.687835e-5
480.625	1.364796e-5
481.25	1.471401e-5
481.875	1.229095e-5
482.5	1.267884e-5
483.125	1.780646e-5
483.75	1.802103e-5
484.375	1.605114e-5
485	1.016302e-5
485.625	1.278413e-5
486.25	1.054955e-5
486.875	1.132049e-5
487.5	1.360896e-5
488.125	1.530177e-5
488.75	1.65273e-5
489.375	1.150729e-5
490	1.390463e-5
490.625	1.132818e-5
491.25	1.110256e-5
491.875	1.246525e-5
492.5	1.049881e-5
493.125	1.413876e-5
493.75	7.068281e-6
494.375	6.669064e-6
495	9.878703e-6
495.625	1.168173e-5
496.25	1.631052e-5
496.875	1.263454e-5
497.5	1.443027e-5
498.125	7.822458e-6
498.75	8.917083e-6
499.375	5.877444e-6
500	1.151112e-5
500.625	1.054691e-5
501.25	1.037332e-5
501.875	1.202804e-5
502.5	7.946139e-6
503.125	1.106093e-5
503.75	7.204535e-6
504.375	1.258947e-5
505	1.315784e-5
505.625	1.038066e-5
506.25	6.529778e-6
506.875	7.611492e-6
507.5	7.796757e-6
508.125	5.748948e-6
508.75	1.205761e-5
509.375	9.676032e-6
510	1.260138e-5
510.625	7.002086e-6
511.25	6.370918e-6
511.875	9.323576e-6
512.5	7.36988e-6
513.125	1.025563e-5
513.75	7.382357e-6
514.375	1.228485e-5
515	5.817809e-6
515.625	3.567433e-6
516.25	4.750054e-6
516.875	1.013617e-5
517.5	1.194617e-5
518.125	1.085881e-5
518.75	1.095273e-5
519.375	7.428451e-6
520	6.105155e-6
520.625	6.225383e-6
521.25	8.088709e-6
521.875	1.36997e-5
522.5	8.012285e-6
523.125	6.417042e-6
523.75	5.673817e-6
524.375	8.343185e-6
525	7.021787e-6
525.625	5.418763e-6
526.25	1.434749e-5
526.875	1.070035e-5
527.5	7.941038e-6
528.125	5.644897e-6
528.75	7.245518e-6
529.375	9.461733e-6
530	8.658456e-6
530.625	9.420656e-6
531.25	8.442089e-6
531.875	9.230597e-6
532.5	1.201506e-6
533.125	5.051073e-6
533.75	9.73981e-6
534.375	1.057915e-5
535	1.094656e-5
535.625	7.75839e-6
536.25	1.181569e-5
536.875	5.097689e-6
537.5	5.833998e-6
538.125	4.049834e-6
538.75	1.059291e-5
539.375	8.502713e-6
540	5.444059e-6
540.625	4.801023e-6
541.25	5.636819e-6
541.875	7.691806e-6
542.5	6.873395e-6
543.125	1.31876e-5
543.75	1.08091e-5
544.375	6.069263e-6
545	3.424942e-6
545.625	3.753022e-6
546.25	6.46926e-6
546.875	5.953473e-6
547.5	7.54332e-6
548.125	9.676108e-6
548.75	8.450046e-6
549.375	4.76224e-6
550	5.415675e-6
550.625	7.676298e-6
551.25	8.639878e-6
551.875	8.054702e-6
552.5	6.132427e-6
553.125	5.174235e-6
553.75	3.92151e-6
554.375	1.840327e-6
555	6.093182e-6
555.625	7.897806e-6
556.25	1.112246e-5
556.875	6.603169e-6
557.5	4.368486e-6
558.125	6.087463e-6
558.75	2.340059e-6
559.375	6.428067e-6
560	5.365213e-6
560.625	1.1941e-5
561.25	6.522364e-6
561.875	4.378451e-6
562.5	3.909357e-6
563.125	5.41915e-6
563.75	9.148737e-6
564.375	7.772957e-6
565	1.101882e-5
565.625	4.396577e-6
566.25	4.242485e-6
566.875	1.477256e-6
567.5	5.790591e-6
568.125	1.141592e-5
568.75	9.05583e-6
569.375	9.226591e-6
570	6.967352e-6
570.625	6.6414e-6
571.25	1.788098e-6
571.875	7.218513e-6
572.5	8.111572e-6
573.125	8.396007e-6
573.75	9.089124e-6
574.375	5.66323e-6
575	5.836082e-6
575.625	6.167682e-6
576.25	8.991311e-6
576.875	1.142174e-5
577.5	1.111562e-5
578.125	9.034521e-6
578.75	4.582082e-6
579.375	5.716658e-6
580	5.444782e-6
580.625	7.933364e-6
581.25	1.051026e-5
581.875	1.18022e-5
582.5	1.007839e-5
583.125	4.170001e-6
583.75	8.729633e-6
584.375	5.387808e-6
585	1.044363e-5
585.625	1.106678e-5
586.25	1.117077e-5
586.875	1.041837e-5
587.5	4.148974e-6
588.125	5.520811e-6
588.75	7.25911e-6
589.375	1.35217e-5
590	8.754674e-6
590.625	8.628723e-6
591.25	8.549407e-6
591.875	5.488246e-6
592.5	6.375122e-6
593.125	6.685784e-6
593.75	1.440054e-5
594.375	9.938436e-6
595	1.115385e-5
595.625	6.540068e-6
596.25	7.976582e-6
596.875	5.943563e-6
597.5	3.913239e-6
598.125	1.06085e-5
598.75	1.040743e-5
599.375	1.058476e-5
600	2.639711e-6
600.625	7.251996e-6
601.25	6.62867e-6
601.875	1.06807e-5
602.5	1.004819e-5
603.125	1.052864e-5
603.75	1.121234e-5
604.375	2.292937e-6
605	5.557601e-6
605.625	2.888666e-6
606.25	8.593322e-6
606.875	9.086018e-6
607.5	6.847441e-6
608.125	1.034518e-5
608.75	7.528459e-6
609.375	5.817889e-6
610	5.108136e-6
610.625	1.192753e-5
611.25	1.084631e-5
611.875	6.82951e-6
612.5	4.153794e-6
613.125	8.505962e-7
613.75	4.626392e-6
614.375	3.8781e-6
615	9.378228e-6
615.625	1.3233e-5
616.25	9.569691e-6
616.875	6.837041e-6
617.5	5.463334e-6
618.125	6.589587e-6
618.75	5.186674e-6
619.375	6.178243e-6
620	8.853567e-6
620.625	7.501942e-6
621.25	4.792061e-6
621.875	2.674229e-6
622.5	6.269112e-6
623.125	8.199552e-6
623.75	1.275226e-5
624.375	8.87134e-6
625	8.907227e-6
625.625	5.942001e-6
626.25	2.490151e-6
626.875	5.432355e-6
627.5	5.649131e-6
628.125	1.074675e-5
628.75	4.951055e-6
629.375	6.432276e-6
630	4.35931e-6
630.625	3.324489e-6
631.25	4.001288e-6
631.875	7.655689e-6
632.5	1.088185e-5
633.125	7.466781e-6
633.75	8.807568e-6
634.375	2.639942e-6
635	3.876429e-6
635.625	4.314681e-6
636.25	5.143872e-6
636.875	9.859024e-6
637.5	5.053045e-6
638.125	3.349231e-6
638.75	7.957407e-7
639.375	5.9193e-6
640	6.40149e-6
640.625	5.584749e-6
641.25	8.409277e-6
641.875	7.137143e-6
642.5	3.121034e-6
643.125	1.380252e-6
643.75	5.303768e-6
644.375	4.580371e-6
645	5.677186e-6
645.625	6.672712e-6
646.25	3.192075e-6
646.875	4.148041e-6
647.5	1.07469e-6
648.125	1.84413e-6
648.75	8.502181e-6
649.375	7.957602e-6
650	7.12511e-6
650.625	3.303957e-6
651.25	2.24122e-6
651.875	1.049757e-6
652.5	1.922421e-6
653.125	3.926164e-6
653.75	6.619826e-6
654.375	9.251302e-6
655	2.02184e-6
655.625	2.330231e-6
656.25	1.743224e-6
656.875	6.123183e-6
657.5	3.579084e-6
658.125	7.077851e-6
658.75	6.245015e-6
659.375	1.484106e-6
660	3.972545e-6
660.625	1.435081e-6
661.25	8.655811e-6
661.875	7.249397e-6
662.5	6.572291e-6
663.125	4.783712e-6
663.75	4.666195e-6
664.375	1.215191e-6
665	1.097519e-6
665.625	4.954526e-6
666.25	7.567822e-6
666.875	8.196379e-6
667.5	3.668232e-6
668.125	3.833002e-6
668.75	4.317715e-6
669.375	1.468342e-6
670	6.70437e-6
670.625	7.001102e-6
671.25	8.145138e-6
671.875	2.44476e-6
672.5	1.92462e-6
673.125	4.97994e-6
673.75	4.431191e-6
