Source File Name:	Analyzer
Signal:	FFT - Vib Velocity - Magnitude

Frequency	Magnitude
[ Hz ]	[ m/s ]
20	0.002495202
20.625	0.002324209
21.25	0.001829352
21.875	0.001320302
22.5	0.001047315
23.125	0.0009105114
23.75	0.0008170513
24.375	0.0007379797
25	0.0006890414
25.625	0.0006417421
26.25	0.0006008402
26.875	0.0005633766
27.5	0.0005337717
28.125	0.0005025712
28.75	0.0004804054
29.375	0.000457048
30	0.0004363441
30.625	0.000422291
31.25	0.0004122234
31.875	0.000402398
32.5	0.00039062
33.125	0.0003810291
33.75	0.0003776017
34.375	0.0003720173
35	0.0003680712
35.625	0.000362828
36.25	0.0003605319
36.875	0.0003566243
37.5	0.0003511625
38.125	0.0003431199
38.75	0.0003298275
39.375	0.0003147698
40	0.0002982624
40.625	0.0002819745
41.25	0.0002647293
41.875	0.0002464199
42.5	0.0002341098
43.125	0.000223791
43.75	0.0002156241
44.375	0.000207789
45	0.0002002775
45.625	0.0001935084
46.25	0.000187136
46.875	0.0001799308
47.5	0.0001722337
48.125	0.0001655963
48.75	0.0001615722
49.375	0.0001580097
50	0.0001520128
50.625	0.0001452921
51.25	0.0001416782
51.875	0.0001375618
52.5	0.0001373528
53.125	0.0001312393
53.75	0.0001303571
54.375	0.0001263646
55	0.000123533
55.625	0.0001135918
56.25	0.0001072615
56.875	0.0001109124
57.5	0.0001017994
58.125	0.0001001856
58.75	0.0001053453
59.375	0.0001009681
60	9.399653e-5
60.625	9.080653e-5
61.25	9.134693e-5
61.875	8.720162e-5
62.5	8.160462e-5
63.125	7.645415e-5
63.75	7.342264e-5
64.375	7.309136e-5
65	7.115597e-5
65.625	6.867159e-5
66.25	6.308351e-5
66.875	6.05266e-5
67.5	6.1557e-5
68.125	5.541745e-5
68.75	5.24168e-5
69.375	5.190159e-5
70	4.981879e-5
70.625	4.781308e-5
71.25	4.557426e-5
71.875	4.442853e-5
72.5	4.206043e-5
73.125	3.898604e-5
73.75	3.649158e-5
74.375	3.332135e-5
75	3.103287e-5
75.625	3.158803e-5
76.25	2.821359e-5
76.875	2.405038e-5
77.5	2.408204e-5
78.125	2.298682e-5
78.75	1.943081e-5
79.375	1.886895e-5
80	1.697744e-5
80.625	1.497617e-5
81.25	1.376064e-5
81.875	1.547313e-5
82.5	1.547841e-5
83.125	1.767099e-5
83.75	1.806188e-5
84.375	1.918936e-5
85	1.819666e-5
85.625	1.853369e-5
86.25	1.927024e-5
86.875	2.342101e-5
87.5	2.388855e-5
88.125	2.540733e-5
88.75	2.747583e-5
89.375	3.059645e-5
90	3.414857e-5
90.625	3.539592e-5
91.25	3.575412e-5
91.875	3.655063e-5
92.5	4.042711e-5
93.125	4.107867e-5
93.75	4.223137e-5
94.375	4.829163e-5
95	5.077791e-5
95.625	4.967281e-5
96.25	5.440915e-5
96.875	5.698901e-5
97.5	5.902158e-5
98.125	5.822402e-5
98.75	6.063871e-5
99.375	6.250126e-5
100	6.705314e-5
100.625	6.881575e-5
101.25	7.076909e-5
101.875	7.302243e-5
102.5	7.66996e-5
103.125	7.781907e-5
103.75	8.094292e-5
104.375	8.418691e-5
105	8.792017e-5
105.625	8.874193e-5
106.25	9.04062e-5
106.875	9.337322e-5
107.5	9.944577e-5
108.125	0.0001030653
108.75	0.0001038565
109.375	0.0001090952
110	0.0001140653
110.625	0.0001155744
111.25	0.000119329
111.875	0.0001228983
112.5	0.0001257325
113.125	0.0001306296
113.75	0.0001341057
114.375	0.0001369746
115	0.0001412258
115.625	0.0001453877
116.25	0.0001471968
116.875	0.0001509222
117.5	0.0001566229
118.125	0.0001615171
118.75	0.000163989
119.375	0.0001670446
120	0.0001716466
120.625	0.0001763645
121.25	0.0001794386
121.875	0.0001851808
122.5	0.0001904973
123.125	0.0001965292
123.75	0.0001993646
124.375	0.0002047302
125	0.0002120983
125.625	0.0002168927
126.25	0.0002209233
126.875	0.0002278879
127.5	0.0002340916
128.125	0.0002423282
128.75	0.0002481389
129.375	0.0002533108
130	0.0002590514
130.625	0.000266782
131.25	0.0002752503
131.875	0.0002814358
132.5	0.000286817
133.125	0.0002960511
133.75	0.0003054515
134.375	0.0003140718
135	0.0003256001
135.625	0.0003369409
136.25	0.000346865
136.875	0.0003581757
137.5	0.0003724695
138.125	0.0003881193
138.75	0.0004028457
139.375	0.0004170419
140	0.0004343764
140.625	0.0004549945
141.25	0.0004763175
141.875	0.0004956862
142.5	0.000515091
143.125	0.0005386331
143.75	0.0005637251
144.375	0.0005885519
145	0.0006120452
145.625	0.0006377232
146.25	0.0006636286
146.875	0.0006889293
147.5	0.0007120874
148.125	0.0007351088
148.75	0.0007554746
149.375	0.0007771396
150	0.0007978816
150.625	0.0008215237
151.25	0.0008506585
151.875	0.0008821735
152.5	0.0009104437
153.125	0.0009392455
153.75	0.0009650426
154.375	0.0009823932
155	0.000985026
155.625	0.0009774473
156.25	0.0009576258
156.875	0.0009274469
157.5	0.0008881577
158.125	0.0008425299
158.75	0.0007940088
159.375	0.0007471396
160	0.0007035633
160.625	0.0006605074
161.25	0.0006198032
161.875	0.0005846026
162.5	0.0005534498
163.125	0.0005244989
163.75	0.0004959839
164.375	0.0004730841
165	0.0004534029
165.625	0.0004321363
166.25	0.0004131269
166.875	0.0003987468
167.5	0.0003843083
168.125	0.0003695718
168.75	0.0003549083
169.375	0.0003417686
170	0.000330379
170.625	0.000319868
171.25	0.0003084339
171.875	0.0002979518
172.5	0.0002860875
173.125	0.0002760524
173.75	0.0002659246
174.375	0.0002542051
175	0.0002434641
175.625	0.0002327367
176.25	0.0002206867
176.875	0.0002108376
177.5	0.0002023444
178.125	0.0001954976
178.75	0.0001838176
179.375	0.0001731186
180	0.0001678409
180.625	0.0001615462
181.25	0.0001512388
181.875	0.0001441074
182.5	0.0001382277
183.125	0.0001328658
183.75	0.0001278016
184.375	0.0001245619
185	0.0001203604
185.625	0.0001153624
186.25	0.0001118257
186.875	0.0001091958
187.5	0.0001075955
188.125	0.0001088533
188.75	0.0001081771
189.375	0.0001070256
190	0.0001099205
190.625	0.0001149726
191.25	0.0001188686
191.875	0.0001228646
192.5	0.0001317001
193.125	0.0001402173
193.75	0.0001461047
194.375	0.0001540393
195	0.0001651865
195.625	0.0001755088
196.25	0.0001843592
196.875	0.0001960818
197.5	0.0002095132
198.125	0.000223325
198.75	0.000238672
199.375	0.0002526861
200	0.0002674814
200.625	0.0002834627
201.25	0.0003000938
201.875	0.0003165262
202.5	0.0003327536
203.125	0.000349796
203.75	0.0003663711
204.375	0.0003818737
205	0.00039766
205.625	0.0004125101
206.25	0.0004229407
206.875	0.0004289576
207.5	0.0004357306
208.125	0.0004434001
208.75	0.0004453571
209.375	0.0004440258
210	0.0004430073
210.625	0.0004429558
211.25	0.0004419057
211.875	0.0004393642
212.5	0.0004368771
213.125	0.0004340492
213.75	0.0004326283
214.375	0.0004325162
215	0.0004285101
215.625	0.0004229328
216.25	0.0004186472
216.875	0.0004110881
217.5	0.0003999471
218.125	0.0003896357
218.75	0.0003811156
219.375	0.000370576
220	0.0003581753
220.625	0.0003470799
221.25	0.0003399455
221.875	0.0003329641
222.5	0.0003228004
223.125	0.0003147046
223.75	0.0003081222
224.375	0.0003030238
225	0.000299186
225.625	0.0002920174
226.25	0.0002863542
226.875	0.0002816448
227.5	0.0002772596
228.125	0.0002721909
228.75	0.0002657904
229.375	0.0002602878
230	0.0002546506
230.625	0.0002482741
231.25	0.0002442189
231.875	0.0002395312
232.5	0.0002342019
233.125	0.0002287263
233.75	0.0002238143
234.375	0.0002203614
235	0.000217018
235.625	0.0002104113
236.25	0.0002047356
236.875	0.0002019715
237.5	0.0001977782
238.125	0.0001928311
238.75	0.0001892724
239.375	0.000185992
240	0.0001835029
240.625	0.0001793675
241.25	0.0001757039
241.875	0.0001728886
242.5	0.0001685516
243.125	0.000163646
243.75	0.0001579659
244.375	0.0001536572
245	0.0001514171
245.625	0.0001470016
246.25	0.0001406508
246.875	0.0001351263
247.5	0.0001320241
248.125	0.0001279274
248.75	0.0001212745
249.375	0.0001139139
250	0.0001079869
250.625	0.000102369
251.25	9.575156e-5
251.875	8.879641e-5
252.5	8.425977e-5
253.125	7.892975e-5
253.75	7.256037e-5
254.375	6.767849e-5
255	6.571585e-5
255.625	6.103794e-5
256.25	5.514269e-5
256.875	5.232292e-5
257.5	5.090057e-5
258.125	4.953903e-5
258.75	4.914321e-5
259.375	4.81111e-5
260	4.81525e-5
260.625	4.979053e-5
261.25	4.967025e-5
261.875	5.009626e-5
262.5	5.283452e-5
263.125	5.499971e-5
263.75	5.363883e-5
264.375	5.43154e-5
265	5.904559e-5
265.625	6.35701e-5
266.25	6.579257e-5
266.875	6.929499e-5
267.5	7.496934e-5
268.125	7.86421e-5
268.75	8.15527e-5
269.375	8.689356e-5
270	9.151707e-5
270.625	9.533997e-5
271.25	9.915872e-5
271.875	0.0001029773
272.5	0.0001083595
273.125	0.0001128106
273.75	0.000115428
274.375	0.000116965
275	0.0001186146
275.625	0.0001223305
276.25	0.0001233995
276.875	0.0001217185
277.5	0.0001215522
278.125	0.0001231885
278.75	0.0001247572
279.375	0.0001247314
280	0.000124991
280.625	0.0001267404
281.25	0.0001262368
281.875	0.0001238402
282.5	0.0001247992
283.125	0.0001258568
283.75	0.0001234928
284.375	0.0001221763
285	0.0001223148
285.625	0.0001215349
286.25	0.0001225718
286.875	0.000122788
287.5	0.0001208634
288.125	0.000120204
288.75	0.000122654
289.375	0.0001248297
290	0.0001236541
290.625	0.0001232005
291.25	0.000126032
291.875	0.0001265286
292.5	0.0001272363
293.125	0.0001305301
293.75	0.0001330669
294.375	0.0001330924
295	0.0001332934
295.625	0.000136387
296.25	0.0001381709
296.875	0.0001360726
297.5	0.0001339726
298.125	0.0001326497
298.75	0.0001308744
299.375	0.0001292829
300	0.0001267859
300.625	0.0001210857
301.25	0.0001176558
301.875	0.0001166424
302.5	0.0001120678
303.125	0.0001059771
303.75	9.96922e-5
304.375	9.557985e-5
305	9.107885e-5
305.625	8.391258e-5
306.25	7.890576e-5
306.875	7.512303e-5
307.5	6.991491e-5
308.125	6.385386e-5
308.75	5.97854e-5
309.375	5.683456e-5
310	5.15099e-5
310.625	4.506664e-5
311.25	4.080362e-5
311.875	3.784966e-5
312.5	3.52214e-5
313.125	3.227932e-5
313.75	3.011402e-5
314.375	2.873621e-5
315	2.82804e-5
315.625	2.720526e-5
316.25	2.591149e-5
316.875	2.673433e-5
317.5	2.783279e-5
318.125	2.61497e-5
318.75	2.621261e-5
319.375	2.906635e-5
320	3.099013e-5
320.625	2.940534e-5
321.25	2.87539e-5
321.875	3.017928e-5
322.5	3.128814e-5
323.125	3.100348e-5
323.75	3.152478e-5
324.375	3.194933e-5
325	3.177144e-5
325.625	3.139291e-5
326.25	3.228322e-5
326.875	3.360581e-5
327.5	3.483049e-5
328.125	3.449047e-5
328.75	3.429736e-5
329.375	3.626641e-5
330	3.748357e-5
330.625	3.787169e-5
331.25	3.76909e-5
331.875	3.856906e-5
332.5	4.087881e-5
333.125	4.155915e-5
333.75	4.235533e-5
334.375	4.476599e-5
335	4.627923e-5
335.625	4.673702e-5
336.25	4.591213e-5
336.875	4.671253e-5
337.5	4.926474e-5
338.125	4.840219e-5
338.75	4.740064e-5
339.375	4.931839e-5
340	5.196198e-5
340.625	5.357923e-5
341.25	5.337789e-5
341.875	5.299652e-5
342.5	5.355399e-5
343.125	5.403796e-5
343.75	5.416157e-5
344.375	5.366006e-5
345	5.327146e-5
345.625	5.4332e-5
346.25	5.408616e-5
346.875	5.341082e-5
347.5	5.569678e-5
348.125	5.627058e-5
348.75	5.437774e-5
349.375	5.39157e-5
350	5.512328e-5
350.625	5.579993e-5
351.25	5.434833e-5
351.875	5.158906e-5
352.5	5.198157e-5
353.125	5.371006e-5
353.75	5.328919e-5
354.375	5.209353e-5
355	5.164093e-5
355.625	5.155665e-5
356.25	5.061083e-5
356.875	5.004198e-5
357.5	5.014931e-5
358.125	4.951769e-5
358.75	4.918954e-5
359.375	4.902194e-5
360	4.838767e-5
360.625	4.957335e-5
361.25	5.09521e-5
361.875	4.953876e-5
362.5	4.797133e-5
363.125	4.961441e-5
363.75	5.116255e-5
364.375	4.897016e-5
365	4.600536e-5
365.625	4.666146e-5
366.25	4.740635e-5
366.875	4.569552e-5
367.5	4.496432e-5
368.125	4.718824e-5
368.75	4.607443e-5
369.375	4.420428e-5
370	4.447347e-5
370.625	4.435027e-5
371.25	4.314003e-5
371.875	4.253428e-5
372.5	4.078936e-5
373.125	3.899111e-5
373.75	4.095874e-5
374.375	4.277026e-5
375	4.079967e-5
375.625	3.985912e-5
376.25	4.193043e-5
376.875	4.343536e-5
377.5	4.223731e-5
378.125	4.171107e-5
378.75	4.299521e-5
379.375	4.339737e-5
380	4.284718e-5
380.625	4.412276e-5
381.25	4.627048e-5
381.875	4.679733e-5
382.5	4.568625e-5
383.125	4.621207e-5
383.75	4.755664e-5
384.375	4.771916e-5
385	4.708851e-5
385.625	4.587058e-5
386.25	4.472934e-5
386.875	4.542251e-5
387.5	4.629449e-5
388.125	4.486491e-5
388.75	4.304331e-5
389.375	4.361427e-5
390	4.410947e-5
390.625	4.227372e-5
391.25	4.015686e-5
391.875	3.978507e-5
392.5	3.895017e-5
393.125	3.56959e-5
393.75	3.409345e-5
394.375	3.526495e-5
395	3.302327e-5
395.625	3.03271e-5
396.25	2.984604e-5
396.875	3.023465e-5
397.5	3.004698e-5
398.125	2.853224e-5
398.75	2.582175e-5
399.375	2.4413e-5
400	2.40724e-5
400.625	2.412037e-5
401.25	2.217118e-5
401.875	1.958096e-5
402.5	2.063427e-5
403.125	2.046635e-5
403.75	1.786686e-5
404.375	1.748124e-5
405	1.7632e-5
405.625	1.578904e-5
406.25	1.344592e-5
406.875	1.29271e-5
407.5	1.460125e-5
408.125	1.378403e-5
408.75	1.140925e-5
409.375	1.116614e-5
410	1.228558e-5
410.625	1.329751e-5
411.25	1.297355e-5
411.875	1.160899e-5
412.5	1.191606e-5
413.125	1.181661e-5
413.75	1.183563e-5
414.375	1.258218e-5
415	1.341455e-5
415.625	1.373075e-5
416.25	1.286683e-5
416.875	1.15875e-5
417.5	1.331855e-5
418.125	1.462878e-5
418.75	1.250929e-5
419.375	1.042278e-5
420	1.135769e-5
420.625	1.257686e-5
421.25	1.161117e-5
421.875	1.129097e-5
422.5	1.237342e-5
423.125	1.196521e-5
423.75	1.130774e-5
424.375	1.172528e-5
425	1.282159e-5
425.625	1.272684e-5
426.25	1.112122e-5
426.875	1.031365e-5
427.5	1.258859e-5
428.125	1.49141e-5
428.75	1.511725e-5
429.375	1.421807e-5
430	1.440373e-5
430.625	1.628781e-5
431.25	1.734839e-5
431.875	1.616823e-5
432.5	1.582954e-5
433.125	1.633243e-5
433.75	1.615545e-5
434.375	1.558442e-5
435	1.660564e-5
435.625	1.832802e-5
436.25	1.861637e-5
436.875	1.794741e-5
437.5	1.800106e-5
438.125	1.97786e-5
438.75	2.091393e-5
439.375	1.84287e-5
440	1.725525e-5
440.625	1.913388e-5
441.25	1.950034e-5
441.875	2.006272e-5
442.5	2.108605e-5
443.125	2.036178e-5
443.75	2.080031e-5
444.375	2.158899e-5
445	2.184431e-5
445.625	2.101931e-5
446.25	2.120435e-5
446.875	2.071937e-5
447.5	1.933334e-5
448.125	1.982128e-5
448.75	2.239803e-5
449.375	2.163108e-5
450	1.859768e-5
450.625	1.898594e-5
451.25	2.11444e-5
451.875	2.064373e-5
452.5	1.801031e-5
453.125	1.676963e-5
453.75	1.770266e-5
454.375	1.782859e-5
455	1.669117e-5
455.625	1.71606e-5
456.25	1.703428e-5
456.875	1.654836e-5
457.5	1.670813e-5
458.125	1.647817e-5
458.75	1.771082e-5
459.375	1.818896e-5
460	1.629785e-5
460.625	1.504705e-5
461.25	1.543551e-5
461.875	1.767322e-5
462.5	1.676874e-5
463.125	1.420446e-5
463.75	1.478479e-5
464.375	1.684433e-5
465	1.644993e-5
465.625	1.500771e-5
466.25	1.53804e-5
466.875	1.53124e-5
467.5	1.363042e-5
468.125	1.303779e-5
468.75	1.459769e-5
469.375	1.447149e-5
470	1.270858e-5
470.625	1.258831e-5
471.25	1.343972e-5
471.875	1.394626e-5
472.5	1.48127e-5
473.125	1.35786e-5
473.75	1.113906e-5
474.375	1.261317e-5
475	1.510553e-5
475.625	1.408947e-5
476.25	1.292272e-5
476.875	1.441095e-5
477.5	1.558019e-5
478.125	1.399453e-5
478.75	1.425762e-5
479.375	1.622909e-5
480	1.463004e-5
480.625	1.249917e-5
481.25	1.292028e-5
481.875	1.363997e-5
482.5	1.424082e-5
483.125	1.357286e-5
483.75	1.323819e-5
484.375	1.341572e-5
485	1.462746e-5
485.625	1.541368e-5
486.25	1.441253e-5
486.875	1.336867e-5
487.5	1.389754e-5
488.125	1.468851e-5
488.75	1.420844e-5
489.375	1.47313e-5
490	1.666596e-5
490.625	1.619199e-5
491.25	1.394429e-5
491.875	1.572874e-5
492.5	1.866405e-5
493.125	1.802664e-5
493.75	1.519976e-5
494.375	1.525549e-5
495	1.69499e-5
495.625	1.733737e-5
496.25	1.631584e-5
496.875	1.565456e-5
497.5	1.542989e-5
498.125	1.576292e-5
498.75	1.623417e-5
499.375	1.587647e-5
500	1.504268e-5
500.625	1.476046e-5
501.25	1.414743e-5
501.875	1.323458e-5
502.5	1.412147e-5
503.125	1.533344e-5
503.75	1.349512e-5
504.375	1.100591e-5
505	1.360949e-5
505.625	1.616846e-5
506.25	1.449536e-5
506.875	1.31548e-5
507.5	1.342048e-5
508.125	1.325395e-5
508.75	1.334615e-5
509.375	1.263554e-5
510	1.279789e-5
510.625	1.328979e-5
511.25	1.271084e-5
511.875	1.24457e-5
512.5	1.291139e-5
513.125	1.346244e-5
513.75	1.29204e-5
514.375	1.025075e-5
515	9.664434e-6
515.625	1.164259e-5
516.25	1.206655e-5
516.875	1.131986e-5
517.5	1.014131e-5
518.125	1.07988e-5
518.75	1.254678e-5
519.375	1.212037e-5
520	1.150336e-5
520.625	1.18522e-5
521.25	1.13422e-5
521.875	1.056718e-5
522.5	1.101435e-5
523.125	1.274184e-5
523.75	1.336138e-5
524.375	1.128972e-5
525	1.066421e-5
525.625	1.260358e-5
526.25	1.351699e-5
526.875	1.235879e-5
527.5	1.069132e-5
528.125	9.491282e-6
528.75	1.068238e-5
529.375	1.120698e-5
530	9.472817e-6
530.625	8.477788e-6
531.25	9.056086e-6
531.875	9.145901e-6
532.5	8.659263e-6
533.125	8.44937e-6
533.75	9.990937e-6
534.375	8.944382e-6
535	7.003043e-6
535.625	7.485841e-6
536.25	9.369759e-6
536.875	9.245999e-6
537.5	8.453039e-6
538.125	8.274859e-6
538.75	9.632108e-6
539.375	1.02676e-5
540	9.89048e-6
540.625	1.005144e-5
541.25	1.027777e-5
541.875	9.124476e-6
542.5	8.24599e-6
543.125	8.759117e-6
543.75	9.867084e-6
544.375	1.028513e-5
545	9.652235e-6
545.625	8.607e-6
546.25	9.838828e-6
546.875	1.173697e-5
547.5	1.059513e-5
548.125	7.544063e-6
548.75	8.212292e-6
549.375	1.013503e-5
550	9.74801e-6
550.625	8.645051e-6
551.25	1.130709e-5
551.875	1.14041e-5
552.5	9.967319e-6
553.125	1.041826e-5
553.75	1.204733e-5
554.375	1.156607e-5
555	1.005115e-5
555.625	8.960212e-6
556.25	9.508231e-6
556.875	1.096532e-5
557.5	1.111152e-5
558.125	9.771856e-6
558.75	8.716816e-6
559.375	9.566483e-6
560	1.059008e-5
560.625	8.83954e-6
561.25	8.565017e-6
561.875	9.791859e-6
562.5	9.503813e-6
563.125	7.61954e-6
563.75	9.053186e-6
564.375	1.166189e-5
565	1.110062e-5
565.625	8.521974e-6
566.25	9.794231e-6
566.875	1.240952e-5
567.5	1.254194e-5
568.125	1.109509e-5
568.75	1.095956e-5
569.375	1.093658e-5
570	1.231606e-5
570.625	1.277663e-5
571.25	1.333732e-5
571.875	1.326595e-5
572.5	1.31951e-5
573.125	1.38992e-5
573.75	1.32482e-5
574.375	1.277124e-5
575	1.364597e-5
575.625	1.203903e-5
576.25	9.720492e-6
576.875	1.103468e-5
577.5	1.377615e-5
578.125	1.256665e-5
578.75	1.068447e-5
579.375	1.226001e-5
580	1.348811e-5
580.625	1.233915e-5
581.25	1.191967e-5
581.875	1.223255e-5
582.5	1.098331e-5
583.125	1.107048e-5
583.75	1.213302e-5
584.375	1.243455e-5
585	1.311903e-5
585.625	1.336188e-5
586.25	1.174914e-5
586.875	1.086276e-5
587.5	1.220094e-5
588.125	1.360728e-5
588.75	1.122114e-5
589.375	8.780819e-6
590	1.04198e-5
590.625	1.254942e-5
591.25	1.139881e-5
591.875	1.0382e-5
592.5	1.035041e-5
593.125	1.087501e-5
593.75	1.074326e-5
594.375	1.061666e-5
595	1.093558e-5
595.625	1.026228e-5
596.25	9.131109e-6
596.875	9.268299e-6
597.5	1.061201e-5
598.125	1.204371e-5
598.75	1.155905e-5
599.375	1.018474e-5
600	1.033347e-5
600.625	1.23493e-5
601.25	1.284936e-5
601.875	1.088786e-5
602.5	9.062974e-6
603.125	9.913492e-6
603.75	1.065098e-5
604.375	9.292468e-6
605	8.876364e-6
605.625	1.04986e-5
606.25	1.007756e-5
606.875	8.072209e-6
607.5	8.154664e-6
608.125	9.695981e-6
608.75	8.244014e-6
609.375	5.352152e-6
610	4.786571e-6
610.625	6.148873e-6
611.25	7.898367e-6
611.875	7.638499e-6
612.5	6.642644e-6
613.125	6.884747e-6
613.75	7.722806e-6
614.375	7.514777e-6
615	6.520305e-6
615.625	6.96186e-6
616.25	6.602846e-6
616.875	5.355884e-6
617.5	5.427743e-6
618.125	8.326714e-6
618.75	8.847976e-6
619.375	7.357305e-6
620	5.44683e-6
620.625	5.861333e-6
621.25	8.093358e-6
621.875	7.533172e-6
622.5	4.441337e-6
623.125	4.414144e-6
623.75	5.312857e-6
624.375	5.737671e-6
625	5.354753e-6
625.625	6.134337e-6
626.25	6.48379e-6
626.875	5.39853e-6
627.5	5.350194e-6
628.125	6.313035e-6
628.75	6.202351e-6
629.375	5.508102e-6
630	4.52014e-6
630.625	3.637688e-6
631.25	5.23012e-6
631.875	7.153537e-6
632.5	5.746475e-6
633.125	4.383929e-6
633.75	4.508884e-6
634.375	6.385233e-6
635	6.158411e-6
635.625	2.938311e-6
636.25	3.073593e-6
636.875	2.652767e-6
637.5	1.808416e-6
638.125	1.197782e-6
638.75	3.141516e-6
639.375	3.55847e-6
640	2.044393e-6
640.625	1.010711e-6
641.25	2.052039e-6
641.875	2.836012e-6
642.5	2.189247e-6
643.125	2.633721e-6
643.75	3.175669e-6
644.375	3.614574e-6
645	4.272721e-6
645.625	3.791295e-6
646.25	4.896513e-6
646.875	5.51986e-6
647.5	4.27033e-6
648.125	2.238017e-6
648.75	3.577783e-6
649.375	5.401513e-6
650	4.208326e-6
650.625	2.429549e-6
651.25	3.824617e-6
651.875	5.178681e-6
652.5	4.068299e-6
653.125	3.444195e-6
653.75	4.186649e-6
654.375	2.952395e-6
655	2.101676e-6
655.625	2.953203e-6
656.25	4.221549e-6
656.875	5.313376e-6
657.5	5.165512e-6
658.125	4.069328e-6
658.75	3.408657e-6
659.375	6.30133e-6
660	6.577106e-6
660.625	3.748693e-6
661.25	2.990544e-6
661.875	5.248744e-6
662.5	5.63353e-6
663.125	3.46243e-6
663.75	5.064699e-6
664.375	5.939377e-6
665	4.196861e-6
665.625	3.73767e-6
666.25	5.362136e-6
666.875	6.640045e-6
667.5	4.868463e-6
668.125	3.188381e-6
668.75	3.895258e-6
669.375	5.188083e-6
670	6.188402e-6
670.625	6.400915e-6
