Source File Name:	Analyzer
Signal:	FFT - Vib Velocity - Magnitude

Frequency	Magnitude
[ Hz ]	[ m/s ]
20	0.001239625
20.625	0.001066427
21.25	0.0009519009
21.875	0.0008624221
22.5	0.000795337
23.125	0.0007359199
23.75	0.0006788957
24.375	0.0006649393
25	0.0005981632
25.625	0.0005725077
26.25	0.0005492911
26.875	0.0005230788
27.5	0.000510528
28.125	0.0005029996
28.75	0.0005004489
29.375	0.000504863
30	0.0005033466
30.625	0.0005057894
31.25	0.0005178202
31.875	0.0005301487
32.5	0.0005322779
33.125	0.000529162
33.75	0.000520713
34.375	0.0005055201
35	0.0004794594
35.625	0.0004539514
36.25	0.0004194646
36.875	0.0003823556
37.5	0.0003621442
38.125	0.0003519023
38.75	0.0003386184
39.375	0.000327291
40	0.0003181265
40.625	0.00030758
41.25	0.0003005301
41.875	0.0002944434
42.5	0.0002822624
43.125	0.0002757592
43.75	0.0002720236
44.375	0.000269036
45	0.0002634673
45.625	0.000254135
46.25	0.0002488074
46.875	0.0002428682
47.5	0.0002390533
48.125	0.00023638
48.75	0.0002281269
49.375	0.0002194776
50	0.000217578
50.625	0.0002181505
51.25	0.0002051442
51.875	0.0002014518
52.5	0.0001892056
53.125	0.0001869242
53.75	0.0001828036
54.375	0.000183096
55	0.0001799809
55.625	0.0001700609
56.25	0.000165204
56.875	0.0001601071
57.5	0.0001447551
58.125	0.000151494
58.75	0.0001433346
59.375	0.0001503721
60	0.000134077
60.625	0.0001374388
61.25	0.0001346168
61.875	0.0001329427
62.5	0.0001355766
63.125	0.0001371513
63.75	0.0001332829
64.375	0.0001322475
65	0.0001299081
65.625	0.000128583
66.25	0.0001256126
66.875	0.0001250872
67.5	0.0001180174
68.125	0.0001176559
68.75	0.0001251141
69.375	0.0001241432
70	0.0001197367
70.625	0.000122609
71.25	0.0001229711
71.875	0.000118583
72.5	0.0001213347
73.125	0.000120031
73.75	0.0001116817
74.375	0.0001145769
75	0.0001164003
75.625	0.0001155016
76.25	0.0001134966
76.875	0.0001128226
77.5	0.0001153723
78.125	0.0001111921
78.75	0.0001144601
79.375	0.0001131705
80	0.0001071708
80.625	0.0001111213
81.25	0.0001178415
81.875	0.0001155885
82.5	0.0001141846
83.125	0.0001196902
83.75	0.0001214587
84.375	0.0001197105
85	0.000126759
85.625	0.0001242527
86.25	0.0001245141
86.875	0.0001244112
87.5	0.0001313112
88.125	0.0001327814
88.75	0.0001277571
89.375	0.0001331182
90	0.0001348902
90.625	0.0001359909
91.25	0.0001383199
91.875	0.0001391562
92.5	0.000135877
93.125	0.0001409948
93.75	0.00014655
94.375	0.0001432246
95	0.0001409388
95.625	0.0001406808
96.25	0.0001402678
96.875	0.0001405115
97.5	0.00014138
98.125	0.0001426642
98.75	0.0001393113
99.375	0.0001460935
100	0.0001543181
100.625	0.0001505902
101.25	0.0001491478
101.875	0.0001517665
102.5	0.0001514204
103.125	0.0001516779
103.75	0.0001578329
104.375	0.0001541181
105	0.0001545858
105.625	0.0001629154
106.25	0.0001669352
106.875	0.0001671259
107.5	0.0001669336
108.125	0.0001718319
108.75	0.0001719931
109.375	0.0001693718
110	0.000174224
110.625	0.0001697467
111.25	0.0001663727
111.875	0.0001739153
112.5	0.0001780719
113.125	0.0001755304
113.75	0.0001788456
114.375	0.0001807943
115	0.0001750332
115.625	0.0001758082
116.25	0.0001761754
116.875	0.000171809
117.5	0.0001717544
118.125	0.0001735972
118.75	0.0001780829
119.375	0.0001751851
120	0.0001765146
120.625	0.000179676
121.25	0.000176988
121.875	0.0001784098
122.5	0.0001801552
123.125	0.0001784508
123.75	0.0001780383
124.375	0.000185167
125	0.0001854324
125.625	0.0001814599
126.25	0.0001848514
126.875	0.000186069
127.5	0.0001876887
128.125	0.0001872434
128.75	0.0001896093
129.375	0.000189853
130	0.0001867809
130.625	0.0001937977
131.25	0.0001923613
131.875	0.0001853258
132.5	0.0001871889
133.125	0.0001908676
133.75	0.0001881161
134.375	0.0001876922
135	0.0001906285
135.625	0.0001882465
136.25	0.0001900084
136.875	0.0001945063
137.5	0.0001928371
138.125	0.0001885822
138.75	0.0001898021
139.375	0.0001945368
140	0.0001935357
140.625	0.0001964417
141.25	0.0002031948
141.875	0.0001991865
142.5	0.0002054915
143.125	0.0002158614
143.75	0.0002141299
144.375	0.0002108853
145	0.0002197054
145.625	0.0002207436
146.25	0.0002206773
146.875	0.0002277523
147.5	0.0002314944
148.125	0.0002320725
148.75	0.0002392575
149.375	0.0002494633
150	0.0002518391
150.625	0.0002522281
151.25	0.0002622074
151.875	0.0002671758
152.5	0.0002673745
153.125	0.0002807991
153.75	0.0002912726
154.375	0.0002984618
155	0.000315739
155.625	0.0003333634
156.25	0.0003413448
156.875	0.0003568751
157.5	0.0003790193
158.125	0.0003932436
158.75	0.0004112283
159.375	0.0004321809
160	0.0004496762
160.625	0.000468587
161.25	0.0004916838
161.875	0.0005120934
162.5	0.0005248539
163.125	0.000539212
163.75	0.0005569124
164.375	0.0005698223
165	0.0005883745
165.625	0.0006068016
166.25	0.0006156977
166.875	0.0006294757
167.5	0.0006504788
168.125	0.0006595331
168.75	0.0006639146
169.375	0.0006684055
170	0.0006600121
170.625	0.0006511995
171.25	0.0006448452
171.875	0.0006231751
172.5	0.000598693
173.125	0.0005796357
173.75	0.0005529447
174.375	0.0005305596
175	0.0005144514
175.625	0.0004907132
176.25	0.000466179
176.875	0.0004528595
177.5	0.0004389643
178.125	0.0004225775
178.75	0.0004104021
179.375	0.0004003
180	0.0003863508
180.625	0.0003771655
181.25	0.0003757481
181.875	0.0003665811
182.5	0.0003531394
183.125	0.0003518057
183.75	0.0003482728
184.375	0.0003382213
185	0.0003380721
185.625	0.0003355665
186.25	0.000327198
186.875	0.0003296626
187.5	0.0003340614
188.125	0.0003277628
188.75	0.0003232282
189.375	0.0003254521
190	0.0003215965
190.625	0.0003183498
191.25	0.0003177116
191.875	0.0003141549
192.5	0.0003091368
193.125	0.0003099328
193.75	0.0003159792
194.375	0.000309671
195	0.000306775
195.625	0.0003102309
196.25	0.0003058091
196.875	0.0003050949
197.5	0.0003079236
198.125	0.0003031401
198.75	0.000300415
199.375	0.0003054169
200	0.0003073881
200.625	0.0003027943
201.25	0.0003023296
201.875	0.0003037184
202.5	0.0003021873
203.125	0.0002992122
203.75	0.0002989873
204.375	0.0002981906
205	0.0002933075
205.625	0.0003008835
206.25	0.0003056586
206.875	0.0003011251
207.5	0.0003043125
208.125	0.0003108206
208.75	0.0003131798
209.375	0.0003143003
210	0.0003182306
210.625	0.000320583
211.25	0.0003232297
211.875	0.0003310616
212.5	0.0003375424
213.125	0.0003356466
213.75	0.0003386528
214.375	0.0003479552
215	0.0003489821
215.625	0.0003510268
216.25	0.0003608359
216.875	0.0003621744
217.5	0.0003665097
218.125	0.0003786515
218.75	0.000381468
219.375	0.0003816282
220	0.0003878784
220.625	0.0003959083
221.25	0.0003972159
221.875	0.0004011024
222.5	0.0004048311
223.125	0.0004059036
223.75	0.0004060006
224.375	0.0004101586
225	0.0004083119
225.625	0.0003934516
226.25	0.0003886184
226.875	0.0003834462
227.5	0.0003694304
228.125	0.0003620252
228.75	0.0003522623
229.375	0.000338268
230	0.0003320285
230.625	0.0003289571
231.25	0.0003196044
231.875	0.0003078388
232.5	0.0003040305
233.125	0.0003001491
233.75	0.000295066
234.375	0.0002911849
235	0.0002923423
235.625	0.0002899463
236.25	0.0002869806
236.875	0.0002920429
237.5	0.00028479
238.125	0.0002786061
238.75	0.0002788144
239.375	0.0002758667
240	0.0002695354
240.625	0.0002637013
241.25	0.00026191
241.875	0.0002579959
242.5	0.0002550203
243.125	0.0002548996
243.75	0.0002517866
244.375	0.0002447275
245	0.0002446272
245.625	0.0002477691
246.25	0.0002386418
246.875	0.0002361859
247.5	0.0002391088
248.125	0.0002353332
248.75	0.0002346784
249.375	0.0002364638
250	0.0002330186
250.625	0.0002266744
251.25	0.0002280843
251.875	0.0002295661
252.5	0.000219581
253.125	0.0002169848
253.75	0.0002218622
254.375	0.000218911
255	0.0002129459
255.625	0.0002169098
256.25	0.0002108215
256.875	0.0002018337
257.5	0.0002063188
258.125	0.0002010318
258.75	0.0001910468
259.375	0.0001883426
260	0.0001886344
260.625	0.000185906
261.25	0.0001782916
261.875	0.0001774581
262.5	0.0001718734
263.125	0.0001663014
263.75	0.0001668172
264.375	0.0001661886
265	0.0001575429
265.625	0.0001565613
266.25	0.0001619919
266.875	0.000153092
267.5	0.0001475066
268.125	0.0001443077
268.75	0.0001368083
269.375	0.0001306072
270	0.0001274176
270.625	0.0001250758
271.25	0.0001157458
271.875	0.000113491
272.5	0.0001160228
273.125	0.0001057074
273.75	9.466479e-5
274.375	9.308122e-5
275	8.997574e-5
275.625	8.340942e-5
276.25	8.50632e-5
276.875	8.561993e-5
277.5	8.533929e-5
278.125	8.93771e-5
278.75	9.461055e-5
279.375	9.757691e-5
280	9.485806e-5
280.625	0.0001054187
281.25	0.0001177613
281.875	0.0001193493
282.5	0.0001249462
283.125	0.0001330242
283.75	0.0001395431
284.375	0.0001435833
285	0.0001492895
285.625	0.0001496057
286.25	0.0001502296
286.875	0.0001565916
287.5	0.0001638932
288.125	0.0001644972
288.75	0.0001614903
289.375	0.0001709316
290	0.0001737687
290.625	0.0001738535
291.25	0.0001791232
291.875	0.0001759822
292.5	0.0001728686
293.125	0.0001786135
293.75	0.0001814744
294.375	0.0001752281
295	0.0001728787
295.625	0.0001769127
296.25	0.0001767789
296.875	0.0001742391
297.5	0.0001750371
298.125	0.0001750709
298.75	0.0001713559
299.375	0.0001770078
300	0.0001836653
300.625	0.0001735588
301.25	0.0001745325
301.875	0.0001810535
302.5	0.0001774131
303.125	0.0001758911
303.75	0.0001756087
304.375	0.0001697686
305	0.0001670734
305.625	0.0001743515
306.25	0.0001718158
306.875	0.0001624495
307.5	0.0001613175
308.125	0.0001622647
308.75	0.0001582744
309.375	0.000153323
310	0.0001539562
310.625	0.0001462412
311.25	0.000143083
311.875	0.0001520705
312.5	0.0001471798
313.125	0.0001369111
313.75	0.0001378491
314.375	0.0001369246
315	0.0001310895
315.625	0.0001286577
316.25	0.0001263014
316.875	0.0001209593
317.5	0.0001230318
318.125	0.0001293776
318.75	0.0001280591
319.375	0.0001224229
320	0.0001238531
320.625	0.0001282674
321.25	0.0001218758
321.875	0.000121431
322.5	0.0001220296
323.125	0.0001156902
323.75	0.0001201612
324.375	0.000126186
325	0.0001227064
325.625	0.0001194095
326.25	0.0001234605
326.875	0.0001240298
327.5	0.0001215202
328.125	0.0001206468
328.75	0.0001188481
329.375	0.0001170371
330	0.0001204088
330.625	0.0001257537
331.25	0.0001228524
331.875	0.0001193948
332.5	0.0001270101
333.125	0.0001280422
333.75	0.0001235565
334.375	0.0001274487
335	0.0001240123
335.625	0.0001228991
336.25	0.0001313785
336.875	0.0001368032
337.5	0.0001322808
338.125	0.000135017
338.75	0.0001439937
339.375	0.0001476071
340	0.0001483652
340.625	0.0001518503
341.25	0.0001545307
341.875	0.0001544505
342.5	0.0001645316
343.125	0.0001722065
343.75	0.0001662025
344.375	0.0001698438
345	0.0001797032
345.625	0.0001796193
346.25	0.0001816813
346.875	0.0001864261
347.5	0.0001855333
348.125	0.0001891406
348.75	0.0001982316
349.375	0.0002001702
350	0.0001961635
350.625	0.0001997189
351.25	0.0002049971
351.875	0.0002056926
352.5	0.0002046255
353.125	0.0002090689
353.75	0.0002084559
354.375	0.0002111841
355	0.000221823
355.625	0.0002206689
356.25	0.0002181088
356.875	0.0002244558
357.5	0.0002288296
358.125	0.0002301049
358.75	0.0002321464
359.375	0.0002350431
360	0.00023975
360.625	0.0002460349
361.25	0.0002520391
361.875	0.0002536942
362.5	0.0002520611
363.125	0.0002564343
363.75	0.0002630131
364.375	0.0002617812
365	0.0002613272
365.625	0.0002649022
366.25	0.0002670706
366.875	0.0002736669
367.5	0.0002768099
368.125	0.0002744509
368.75	0.0002735216
369.375	0.00027582
370	0.0002812818
370.625	0.0002797348
371.25	0.0002760845
371.875	0.0002796102
372.5	0.0002849543
373.125	0.0002855916
373.75	0.0002903602
374.375	0.00029024
375	0.0002868159
375.625	0.0002939958
376.25	0.0002982365
376.875	0.0002963633
377.5	0.0002949507
378.125	0.0002993316
378.75	0.0003057068
379.375	0.0003067577
380	0.0003086839
380.625	0.0003096389
381.25	0.0003079046
381.875	0.0003117877
382.5	0.0003170646
383.125	0.0003112473
383.75	0.0003082507
384.375	0.0003142307
385	0.0003154073
385.625	0.0003144759
386.25	0.0003152217
386.875	0.000312308
387.5	0.000311977
388.125	0.000313577
388.75	0.0003172714
389.375	0.0003134358
390	0.0003094059
390.625	0.0003182492
391.25	0.0003199473
391.875	0.0003158836
392.5	0.0003182185
393.125	0.0003213205
393.75	0.000318948
394.375	0.00032478
395	0.0003300023
395.625	0.0003247916
396.25	0.0003269464
396.875	0.0003335914
397.5	0.0003365148
398.125	0.0003307866
398.75	0.0003327591
399.375	0.0003375787
400	0.0003344939
400.625	0.0003390104
401.25	0.0003435813
401.875	0.0003369685
402.5	0.0003392383
403.125	0.0003469946
403.75	0.0003436461
404.375	0.0003386095
405	0.0003417856
405.625	0.000340957
406.25	0.000340413
406.875	0.0003447991
407.5	0.0003467779
408.125	0.0003470278
408.75	0.0003500084
409.375	0.0003585657
410	0.0003565832
410.625	0.0003531253
411.25	0.0003597954
411.875	0.0003610344
412.5	0.0003616661
413.125	0.0003658492
413.75	0.0003685192
414.375	0.0003698383
415	0.0003766303
415.625	0.0003785996
416.25	0.0003769053
416.875	0.000376943
417.5	0.000376896
418.125	0.0003813542
418.75	0.000380109
419.375	0.000380363
420	0.0003824304
420.625	0.0003826021
421.25	0.0003860476
421.875	0.0003853144
422.5	0.0003816107
423.125	0.0003796402
423.75	0.000379749
424.375	0.000380083
425	0.0003785167
425.625	0.0003773166
426.25	0.0003800551
426.875	0.0003839214
427.5	0.0003828861
428.125	0.0003840518
428.75	0.0003843089
429.375	0.0003801778
430	0.0003858258
430.625	0.0003862888
431.25	0.0003815794
431.875	0.0003811727
432.5	0.0003829272
433.125	0.0003843988
433.75	0.0003809921
434.375	0.0003795511
435	0.000378466
435.625	0.0003771904
436.25	0.0003785605
436.875	0.0003793984
437.5	0.0003742813
438.125	0.0003690281
438.75	0.0003731094
439.375	0.0003678558
440	0.000362323
440.625	0.0003603505
441.25	0.0003569255
441.875	0.0003571896
442.5	0.0003573757
443.125	0.0003570114
443.75	0.0003518311
444.375	0.0003490226
445	0.0003531005
445.625	0.0003505415
446.25	0.0003427338
446.875	0.0003438021
447.5	0.0003468802
448.125	0.0003433804
448.75	0.0003471195
449.375	0.0003468078
450	0.0003373421
450.625	0.0003384436
451.25	0.0003394253
451.875	0.0003335639
452.5	0.000325229
453.125	0.0003242264
453.75	0.0003258489
454.375	0.0003221696
455	0.0003237311
455.625	0.0003218143
456.25	0.0003145337
456.875	0.0003142392
457.5	0.0003160696
458.125	0.0003064699
458.75	0.0002979726
459.375	0.000301304
460	0.000297809
460.625	0.0002977392
461.25	0.000298199
461.875	0.0002946588
462.5	0.0002938555
463.125	0.0002963897
463.75	0.0002992327
464.375	0.0002930169
465	0.0002889077
465.625	0.0002930995
466.25	0.0002940428
466.875	0.0002917755
467.5	0.0002912097
468.125	0.0002880488
468.75	0.0002854769
469.375	0.0002879895
470	0.0002851164
470.625	0.0002794129
471.25	0.0002771153
471.875	0.0002753482
472.5	0.000277645
473.125	0.0002733534
473.75	0.0002668827
474.375	0.0002666406
475	0.0002642512
475.625	0.0002630286
476.25	0.0002600812
476.875	0.0002552417
477.5	0.0002516803
478.125	0.0002538926
478.75	0.0002525791
479.375	0.0002468922
480	0.0002424703
480.625	0.0002411688
481.25	0.0002431574
481.875	0.0002404244
482.5	0.0002401464
483.125	0.0002391697
483.75	0.0002361661
484.375	0.0002414594
485	0.0002391088
485.625	0.0002303465
486.25	0.0002256363
486.875	0.0002235992
487.5	0.000218909
488.125	0.0002158675
488.75	0.0002118522
489.375	0.0002081553
490	0.0002082806
490.625	0.0002080495
491.25	0.0002046787
491.875	0.0001969279
492.5	0.0001898732
493.125	0.0001899099
493.75	0.0001841088
494.375	0.0001780519
495	0.0001761619
495.625	0.0001721961
496.25	0.0001722723
496.875	0.0001723072
497.5	0.0001669111
498.125	0.0001598738
498.75	0.000156856
499.375	0.0001570751
500	0.0001538634
500.625	0.0001491542
501.25	0.0001484565
501.875	0.0001488676
502.5	0.0001449521
503.125	0.0001455888
503.75	0.000140852
504.375	0.0001305257
505	0.0001299288
505.625	0.000126964
506.25	0.0001194163
506.875	0.0001143365
507.5	0.0001120364
508.125	0.0001101166
508.75	0.000107024
509.375	0.0001039625
510	0.0001000238
510.625	9.588998e-5
511.25	9.444967e-5
511.875	9.387579e-5
512.5	8.654538e-5
513.125	8.218405e-5
513.75	8.340534e-5
514.375	8.107013e-5
515	7.969222e-5
515.625	7.733802e-5
516.25	7.322309e-5
516.875	7.67915e-5
517.5	7.600462e-5
518.125	7.465474e-5
518.75	7.259929e-5
519.375	6.988511e-5
520	7.052065e-5
520.625	7.027846e-5
521.25	6.456077e-5
521.875	5.91493e-5
522.5	5.884281e-5
523.125	5.721512e-5
523.75	5.565087e-5
524.375	5.211459e-5
525	4.922671e-5
525.625	4.713175e-5
526.25	4.597516e-5
526.875	4.721959e-5
527.5	3.93428e-5
528.125	3.64925e-5
528.75	4.410232e-5
529.375	4.319883e-5
530	4.096501e-5
530.625	4.24465e-5
531.25	4.015335e-5
531.875	3.904113e-5
532.5	4.111015e-5
533.125	3.685455e-5
533.75	3.38134e-5
534.375	3.562836e-5
535	4.032866e-5
535.625	4.175911e-5
536.25	3.79916e-5
536.875	3.786743e-5
537.5	3.635458e-5
538.125	3.306242e-5
538.75	3.090401e-5
539.375	2.321328e-5
540	2.076864e-5
540.625	2.372352e-5
541.25	2.370298e-5
541.875	2.548854e-5
542.5	2.362581e-5
543.125	2.369441e-5
543.75	2.774282e-5
544.375	2.670341e-5
545	2.421833e-5
545.625	2.995028e-5
546.25	3.504134e-5
546.875	3.862104e-5
547.5	3.916541e-5
548.125	3.957119e-5
548.75	4.267768e-5
549.375	4.31059e-5
550	4.591477e-5
550.625	4.58588e-5
551.25	4.441153e-5
551.875	5.148945e-5
552.5	5.593761e-5
553.125	5.482715e-5
553.75	5.534279e-5
554.375	5.794748e-5
555	5.917763e-5
555.625	6.194371e-5
556.25	6.232438e-5
556.875	6.23607e-5
557.5	6.475017e-5
558.125	6.975825e-5
558.75	7.586838e-5
559.375	7.406319e-5
560	7.621782e-5
560.625	8.45648e-5
561.25	8.69515e-5
561.875	9.082458e-5
562.5	9.312497e-5
563.125	9.28082e-5
563.75	9.607141e-5
564.375	0.0001015328
565	0.0001004934
565.625	9.89676e-5
566.25	0.0001005507
566.875	0.0001037648
567.5	0.0001076674
568.125	0.000108643
568.75	0.000108951
569.375	0.000110299
570	0.0001123323
570.625	0.0001169342
571.25	0.0001117423
571.875	0.0001087905
572.5	0.0001121819
573.125	0.0001127791
573.75	0.0001165226
574.375	0.0001190488
575	0.0001176393
575.625	0.0001204408
576.25	0.0001273771
576.875	0.0001259585
577.5	0.0001236496
578.125	0.0001242534
578.75	0.0001244744
579.375	0.0001303421
580	0.0001336678
580.625	0.0001350735
581.25	0.000134609
581.875	0.0001372964
582.5	0.0001423889
583.125	0.0001369014
583.75	0.0001338483
584.375	0.000133437
585	0.0001313845
585.625	0.0001324133
586.25	0.0001362894
586.875	0.0001325734
587.5	0.0001319075
588.125	0.0001378164
588.75	0.0001353338
589.375	0.0001325785
590	0.0001311695
590.625	0.0001285573
591.25	0.000130146
591.875	0.0001317565
592.5	0.0001323237
593.125	0.000130882
593.75	0.0001336829
594.375	0.0001399226
595	0.0001380305
595.625	0.0001373575
596.25	0.0001404676
596.875	0.0001407357
597.5	0.0001419556
598.125	0.0001465927
598.75	0.0001446189
599.375	0.0001429962
600	0.0001489271
600.625	0.0001483194
601.25	0.000146828
601.875	0.0001453894
602.5	0.0001466095
603.125	0.0001489466
603.75	0.000147992
604.375	0.0001491225
605	0.0001464586
605.625	0.0001453105
606.25	0.0001492826
606.875	0.0001490967
607.5	0.0001444973
608.125	0.0001467854
608.75	0.0001517909
609.375	0.0001524477
610	0.0001573316
610.625	0.0001562675
611.25	0.0001547844
611.875	0.0001574307
612.5	0.0001603049
613.125	0.000160491
613.75	0.0001580814
614.375	0.0001623481
615	0.0001694699
615.625	0.0001695614
616.25	0.0001731262
616.875	0.0001728712
617.5	0.0001697068
618.125	0.0001715649
618.75	0.0001735585
619.375	0.0001670561
620	0.0001660193
620.625	0.0001710299
621.25	0.0001706047
621.875	0.0001746873
622.5	0.0001735763
623.125	0.0001709849
623.75	0.000170634
624.375	0.0001717765
625	0.0001712676
625.625	0.0001650859
626.25	0.0001662166
626.875	0.0001704911
627.5	0.000171598
628.125	0.0001740603
628.75	0.0001758647
629.375	0.0001721716
630	0.0001745352
630.625	0.0001785879
631.25	0.0001725825
631.875	0.0001701857
632.5	0.0001728696
633.125	0.0001716656
633.75	0.0001746388
634.375	0.0001737927
635	0.0001706999
635.625	0.0001695953
636.25	0.0001712014
636.875	0.0001702495
637.5	0.0001637567
638.125	0.000161161
638.75	0.000161685
639.375	0.0001603818
640	0.0001589112
640.625	0.0001575223
641.25	0.0001518138
641.875	0.0001513964
642.5	0.000156513
643.125	0.0001515921
643.75	0.0001492934
644.375	0.000149263
645	0.0001487567
645.625	0.0001515938
646.25	0.0001495915
646.875	0.000146685
647.5	0.0001459305
648.125	0.0001488592
648.75	0.0001507116
649.375	0.0001489325
650	0.0001479112
650.625	0.0001482885
651.25	0.0001491461
651.875	0.0001472077
