Source File Name:	Analyzer
Signal:	FFT - Vib Velocity - Magnitude

Frequency	Magnitude
[ Hz ]	[ m/s ]
20	0.001789591
20.625	0.001424506
21.25	0.00125723
21.875	0.001137508
22.5	0.001056984
23.125	0.0009938282
23.75	0.0009097588
24.375	0.0008680807
25	0.0008287149
25.625	0.0007894905
26.25	0.0007610288
26.875	0.0007261426
27.5	0.0007143095
28.125	0.0007122585
28.75	0.0007211614
29.375	0.0007344191
30	0.0007513828
30.625	0.0007781871
31.25	0.0007993131
31.875	0.0008327667
32.5	0.0008533954
33.125	0.0008624876
33.75	0.0008748377
34.375	0.0008684723
35	0.0008593366
35.625	0.0008271643
36.25	0.0008083623
36.875	0.0007739895
37.5	0.0007436527
38.125	0.0007244057
38.75	0.0006951623
39.375	0.0006825601
40	0.0006689635
40.625	0.0006568404
41.25	0.0006377829
41.875	0.0006237581
42.5	0.000625209
43.125	0.0006142469
43.75	0.0006155393
44.375	0.0006125597
45	0.0006067732
45.625	0.000602661
46.25	0.0006017986
46.875	0.0006050964
47.5	0.0005876118
48.125	0.0005904464
48.75	0.0005835581
49.375	0.000578191
50	0.0005744369
50.625	0.0005614455
51.25	0.0005590037
51.875	0.0005444725
52.5	0.000541536
53.125	0.0005266469
53.75	0.0005285925
54.375	0.0005303883
55	0.0005252409
55.625	0.0005196459
56.25	0.0005104322
56.875	0.000503124
57.5	0.000508874
58.125	0.0005004365
58.75	0.0005070878
59.375	0.0004917833
60	0.0004866784
60.625	0.0004931259
61.25	0.000482274
61.875	0.0004876857
62.5	0.0004731763
63.125	0.0004679991
63.75	0.0004683291
64.375	0.000468489
65	0.0004628953
65.625	0.0004534184
66.25	0.000461555
66.875	0.0004515905
67.5	0.000445612
68.125	0.0004444491
68.75	0.0004381103
69.375	0.0004394086
70	0.0004371882
70.625	0.0004393781
71.25	0.0004326746
71.875	0.0004255
72.5	0.0004307605
73.125	0.0004244846
73.75	0.000424311
74.375	0.000423373
75	0.0004140458
75.625	0.0004130288
76.25	0.00040833
76.875	0.000410676
77.5	0.0004009037
78.125	0.0004052231
78.75	0.0004024957
79.375	0.0004013587
80	0.0004019031
80.625	0.0003945389
81.25	0.0003928482
81.875	0.0003877031
82.5	0.0003927812
83.125	0.0003858705
83.75	0.0003828592
84.375	0.0003845179
85	0.0003763261
85.625	0.000376581
86.25	0.0003754231
86.875	0.0003671487
87.5	0.0003705114
88.125	0.0003688785
88.75	0.0003709226
89.375	0.0003635111
90	0.0003664593
90.625	0.0003667914
91.25	0.0003507139
91.875	0.000359718
92.5	0.000350486
93.125	0.0003484071
93.75	0.0003512847
94.375	0.000352309
95	0.0003521123
95.625	0.0003405378
96.25	0.0003466133
96.875	0.0003437261
97.5	0.0003425672
98.125	0.000340158
98.75	0.0003366455
99.375	0.0003343077
100	0.0003307853
100.625	0.0003343555
101.25	0.0003318929
101.875	0.0003261933
102.5	0.0003280441
103.125	0.0003189032
103.75	0.0003322916
104.375	0.0003279331
105	0.000323071
105.625	0.0003229213
106.25	0.000316265
106.875	0.0003214421
107.5	0.0003169439
108.125	0.0003207214
108.75	0.0003171149
109.375	0.0003143415
110	0.0003142508
110.625	0.0003077462
111.25	0.0003102589
111.875	0.0003083357
112.5	0.0003135335
113.125	0.0003086679
113.75	0.0003079677
114.375	0.00030755
115	0.0002972754
115.625	0.0003002467
116.25	0.0003023077
116.875	0.000297744
117.5	0.0002992692
118.125	0.0002988736
118.75	0.0002991472
119.375	0.0002955178
120	0.0002989911
120.625	0.000301141
121.25	0.0002886677
121.875	0.0002992134
122.5	0.0002934456
123.125	0.0002931032
123.75	0.0002923509
124.375	0.0002923269
125	0.000290087
125.625	0.0002831873
126.25	0.0002868333
126.875	0.0002822177
127.5	0.0002861293
128.125	0.0002883534
128.75	0.0002872112
129.375	0.00028487
130	0.0002817285
130.625	0.000279567
131.25	0.0002795523
131.875	0.0002776773
132.5	0.0002784814
133.125	0.0002708268
133.75	0.0002798157
134.375	0.0002776895
135	0.0002710862
135.625	0.0002721026
136.25	0.0002701129
136.875	0.00027233
137.5	0.0002687717
138.125	0.0002734495
138.75	0.0002635656
139.375	0.0002634535
140	0.0002662212
140.625	0.0002644131
141.25	0.0002623835
141.875	0.0002653273
142.5	0.0002665402
143.125	0.0002639007
143.75	0.0002656367
144.375	0.0002676154
145	0.0002596847
145.625	0.0002594154
146.25	0.0002642403
146.875	0.0002631377
147.5	0.0002657242
148.125	0.0002667357
148.75	0.0002699431
149.375	0.0002598433
150	0.0002591865
150.625	0.0002566594
151.25	0.0002548071
151.875	0.0002606809
152.5	0.0002596866
153.125	0.0002575095
153.75	0.0002489805
154.375	0.0002563481
155	0.0002499842
155.625	0.0002433608
156.25	0.0002392623
156.875	0.0002295244
157.5	0.0002154954
158.125	0.000200551
158.75	0.0001878763
159.375	0.0001693204
160	0.0001454878
160.625	0.0001372402
161.25	0.0001196329
161.875	0.0001209603
162.5	0.0001435331
163.125	0.0001671787
163.75	0.000200811
164.375	0.0002230011
165	0.0002519781
165.625	0.0002647656
166.25	0.0002903561
166.875	0.0003080222
167.5	0.000325822
168.125	0.0003361303
168.75	0.0003442453
169.375	0.0003499704
170	0.0003454231
170.625	0.0003438772
171.25	0.0003373831
171.875	0.0003271385
172.5	0.0003167921
173.125	0.0003030779
173.75	0.0002908267
174.375	0.0002750415
175	0.0002724534
175.625	0.0002594143
176.25	0.0002451954
176.875	0.0002407551
177.5	0.0002267317
178.125	0.0002256651
178.75	0.0002138838
179.375	0.0002124469
180	0.0002023986
180.625	0.00020281
181.25	0.0002078199
181.875	0.0002009861
182.5	0.0002059803
183.125	0.00020496
183.75	0.0002097365
184.375	0.0002094824
185	0.0002098638
185.625	0.0002120974
186.25	0.0002047519
186.875	0.0002097688
187.5	0.0002078334
188.125	0.0002042026
188.75	0.0002109187
189.375	0.0002028064
190	0.0002108145
190.625	0.0002083057
191.25	0.0002116656
191.875	0.0002087041
192.5	0.0002068567
193.125	0.0002164687
193.75	0.0002109898
194.375	0.0002185649
195	0.0002169701
195.625	0.0002253456
196.25	0.0002241699
196.875	0.0002276984
197.5	0.0002340018
198.125	0.0002310458
198.75	0.0002386069
199.375	0.0002468285
200	0.0002498727
200.625	0.0002580196
201.25	0.0002665556
201.875	0.0002719573
202.5	0.000266785
203.125	0.0002748999
203.75	0.0002852077
204.375	0.0002857364
205	0.0002979564
205.625	0.0002970083
206.25	0.0003012872
206.875	0.0002995702
207.5	0.0003146396
208.125	0.0003155253
208.75	0.000319832
209.375	0.0003243253
210	0.0003237082
210.625	0.0003241179
211.25	0.0003214401
211.875	0.0003279912
212.5	0.0003219657
213.125	0.0003219973
213.75	0.000326495
214.375	0.0003208345
215	0.000317309
215.625	0.0003194814
216.25	0.000326175
216.875	0.0003206106
217.5	0.0003229662
218.125	0.0003278232
218.75	0.0003215648
219.375	0.0003246942
220	0.0003221832
220.625	0.0003303762
221.25	0.0003264148
221.875	0.0003374624
222.5	0.0003340654
223.125	0.0003281728
223.75	0.0003282764
224.375	0.0003243586
225	0.0003239827
225.625	0.0003138374
226.25	0.0003104261
226.875	0.0003038831
227.5	0.0003000755
228.125	0.0002975211
228.75	0.0002909409
229.375	0.000286835
230	0.0002757291
230.625	0.0002645013
231.25	0.0002503386
231.875	0.0002346879
232.5	0.0002289213
233.125	0.0002092145
233.75	0.0001948159
234.375	0.0001723973
235	0.0001594841
235.625	0.0001418178
236.25	0.000128514
236.875	0.0001205678
237.5	0.0001027148
238.125	9.694339e-5
238.75	8.877037e-5
239.375	8.646982e-5
240	7.78626e-5
240.625	7.575551e-5
241.25	7.338241e-5
241.875	6.574377e-5
242.5	7.05818e-5
243.125	6.874701e-5
243.75	6.078995e-5
244.375	6.333358e-5
245	6.043839e-5
245.625	6.079131e-5
246.25	5.692025e-5
246.875	5.765211e-5
247.5	6.066856e-5
248.125	5.594325e-5
248.75	6.397001e-5
249.375	5.920527e-5
250	5.68352e-5
250.625	6.046587e-5
251.25	5.773261e-5
251.875	5.960142e-5
252.5	6.191118e-5
253.125	6.331349e-5
253.75	6.447581e-5
254.375	6.862052e-5
255	6.884791e-5
255.625	6.696636e-5
256.25	7.175642e-5
256.875	7.673367e-5
257.5	7.491671e-5
258.125	8.09717e-5
258.75	7.446377e-5
259.375	7.22338e-5
260	7.318152e-5
260.625	7.773587e-5
261.25	7.71182e-5
261.875	7.259981e-5
262.5	8.268675e-5
263.125	7.548079e-5
263.75	7.832549e-5
264.375	7.861423e-5
265	8.173544e-5
265.625	7.765011e-5
266.25	7.954696e-5
266.875	8.205252e-5
267.5	7.77263e-5
268.125	7.728858e-5
268.75	7.694861e-5
269.375	7.684928e-5
270	7.020464e-5
270.625	7.166958e-5
271.25	7.286077e-5
271.875	6.90079e-5
272.5	7.468605e-5
273.125	7.455601e-5
273.75	7.304593e-5
274.375	7.398959e-5
275	7.608403e-5
275.625	7.846149e-5
276.25	7.102133e-5
276.875	8.146256e-5
277.5	7.616465e-5
278.125	8.160569e-5
278.75	7.841132e-5
279.375	8.06125e-5
280	8.047945e-5
280.625	7.802637e-5
281.25	8.432577e-5
281.875	7.634654e-5
282.5	7.821072e-5
283.125	8.097658e-5
283.75	8.291241e-5
284.375	8.478682e-5
285	7.927985e-5
285.625	8.568446e-5
286.25	8.102944e-5
286.875	7.339007e-5
287.5	7.787035e-5
288.125	7.340949e-5
288.75	7.637117e-5
289.375	7.63787e-5
290	8.295048e-5
290.625	7.535679e-5
291.25	7.787355e-5
291.875	8.491374e-5
292.5	7.806827e-5
293.125	8.750678e-5
293.75	8.943763e-5
294.375	9.344138e-5
295	9.446176e-5
295.625	0.0001001468
296.25	9.978422e-5
296.875	9.508883e-5
297.5	0.0001020169
298.125	0.0001059128
298.75	0.0001061187
299.375	0.0001100015
300	0.0001109107
300.625	0.000112784
301.25	0.0001138934
301.875	0.0001202302
302.5	0.000119737
303.125	0.0001183663
303.75	0.0001275892
304.375	0.0001245909
305	0.0001338469
305.625	0.0001313519
306.25	0.00013505
306.875	0.0001365622
307.5	0.0001353184
308.125	0.0001383373
308.75	0.0001373496
309.375	0.0001482547
310	0.0001487022
310.625	0.0001506895
311.25	0.0001543323
311.875	0.000150685
312.5	0.0001515903
313.125	0.0001547733
313.75	0.0001582663
314.375	0.0001554246
315	0.0001505382
315.625	0.0001571682
316.25	0.0001552121
316.875	0.0001573442
317.5	0.0001600242
318.125	0.0001572277
318.75	0.0001606312
319.375	0.0001577734
320	0.0001637661
320.625	0.0001546512
321.25	0.0001552838
321.875	0.0001579351
322.5	0.0001546151
323.125	0.0001565814
323.75	0.000156491
324.375	0.0001582352
325	0.000151527
325.625	0.0001543166
326.25	0.0001520914
326.875	0.0001457415
327.5	0.0001485202
328.125	0.0001504738
328.75	0.000146279
329.375	0.000147041
330	0.0001440265
330.625	0.0001412383
331.25	0.0001378511
331.875	0.0001414923
332.5	0.0001333674
333.125	0.0001301013
333.75	0.0001320555
334.375	0.0001303577
335	0.0001321427
335.625	0.0001280755
336.25	0.0001280513
336.875	0.0001228888
337.5	0.0001237325
338.125	0.0001206829
338.75	0.0001168207
339.375	0.0001155713
340	0.0001110571
340.625	0.0001076725
341.25	0.0001127693
341.875	0.000111336
342.5	0.000106307
343.125	0.0001110458
343.75	0.000111519
344.375	0.000110445
345	0.0001043916
345.625	0.0001086463
346.25	0.0001001408
346.875	9.984773e-5
347.5	0.0001072677
348.125	0.0001018132
348.75	0.0001059831
349.375	0.0001040035
350	0.0001068357
350.625	0.000102285
351.25	0.0001038629
351.875	0.0001069568
352.5	0.0001040746
353.125	0.0001077678
353.75	0.0001087015
354.375	0.0001040894
355	0.0001024454
355.625	0.0001046317
356.25	0.0001081109
356.875	0.0001095886
357.5	0.0001071016
358.125	0.0001110787
358.75	0.0001099009
359.375	0.0001168969
360	0.0001145698
360.625	0.0001168768
361.25	0.0001181671
361.875	0.0001177879
362.5	0.0001213779
363.125	0.0001214577
363.75	0.0001244903
364.375	0.0001164427
365	0.0001233225
365.625	0.0001275146
366.25	0.0001260252
366.875	0.0001304644
367.5	0.0001360685
368.125	0.000136218
368.75	0.0001355859
369.375	0.0001391206
370	0.0001371165
370.625	0.0001327104
371.25	0.0001392022
371.875	0.0001410163
372.5	0.0001400469
373.125	0.0001455724
373.75	0.0001476114
374.375	0.0001514653
375	0.0001470664
375.625	0.0001524806
376.25	0.0001517812
376.875	0.0001529445
377.5	0.0001602497
378.125	0.0001544127
378.75	0.000157036
379.375	0.0001558075
380	0.0001548513
380.625	0.0001580814
381.25	0.0001627078
381.875	0.0001580166
382.5	0.0001580529
383.125	0.0001622209
383.75	0.0001638813
384.375	0.0001614784
385	0.0001669355
385.625	0.0001673531
386.25	0.0001639706
386.875	0.0001679112
387.5	0.0001635696
388.125	0.0001634801
388.75	0.0001589644
389.375	0.0001644316
390	0.0001600441
390.625	0.0001597686
391.25	0.0001654857
391.875	0.0001623879
392.5	0.0001643921
393.125	0.0001629642
393.75	0.0001601116
394.375	0.0001566887
395	0.000158861
395.625	0.0001609052
396.25	0.0001595095
396.875	0.0001574378
397.5	0.000156708
398.125	0.0001549012
398.75	0.0001573688
399.375	0.0001546845
400	0.0001545359
400.625	0.0001501759
401.25	0.0001544339
401.875	0.0001558262
402.5	0.0001516842
403.125	0.0001547564
403.75	0.0001451272
404.375	0.0001458693
405	0.0001419302
405.625	0.0001453748
406.25	0.0001448532
406.875	0.000144413
407.5	0.0001490719
408.125	0.0001413335
408.75	0.0001418923
409.375	0.0001398252
410	0.0001355676
410.625	0.0001388491
411.25	0.0001403243
411.875	0.0001379095
412.5	0.0001356077
413.125	0.0001361822
413.75	0.0001403195
414.375	0.0001326052
415	0.0001384645
415.625	0.0001350874
416.25	0.0001302336
416.875	0.0001363362
417.5	0.0001346627
418.125	0.0001347685
418.75	0.0001311223
419.375	0.0001373071
420	0.000129933
420.625	0.0001333317
421.25	0.0001352234
421.875	0.0001288216
422.5	0.0001291549
423.125	0.0001301135
423.75	0.0001324265
424.375	0.0001305052
425	0.0001330589
425.625	0.0001335101
426.25	0.000131854
426.875	0.0001318209
427.5	0.000130534
428.125	0.0001259267
428.75	0.0001288769
429.375	0.000123777
430	0.0001239234
430.625	0.0001269576
431.25	0.0001284691
431.875	0.0001258029
432.5	0.0001247793
433.125	0.0001254362
433.75	0.000116971
434.375	0.0001222921
435	0.0001235469
435.625	0.0001245495
436.25	0.0001197145
436.875	0.0001191668
437.5	0.0001181917
438.125	0.0001170568
438.75	0.0001188527
439.375	0.0001190671
440	0.0001146115
440.625	0.0001172831
441.25	0.0001234426
441.875	0.000118034
442.5	0.0001194534
443.125	0.0001129892
443.75	0.0001145767
444.375	0.0001096819
445	0.000115572
445.625	0.0001157708
446.25	0.0001085029
446.875	0.0001138944
447.5	0.0001107993
448.125	0.0001146087
448.75	0.000112123
449.375	0.000115018
450	0.0001133143
450.625	0.0001121945
451.25	0.0001151947
451.875	0.0001114656
452.5	0.0001103281
453.125	0.000112975
453.75	0.0001099939
454.375	0.0001103548
455	0.000107864
455.625	0.0001062041
456.25	0.0001093364
456.875	0.0001103925
457.5	0.0001111202
458.125	0.0001026326
458.75	0.0001100331
459.375	0.000106406
460	0.000107998
460.625	0.0001115363
461.25	0.0001058942
461.875	9.99746e-5
462.5	9.810196e-5
463.125	0.000105898
463.75	9.884033e-5
464.375	0.0001003943
465	0.0001051762
465.625	0.0001014691
466.25	0.0001025315
466.875	0.0001024512
467.5	9.761628e-5
468.125	9.497378e-5
468.75	9.615601e-5
469.375	9.994052e-5
470	9.223127e-5
470.625	9.606724e-5
471.25	9.389392e-5
471.875	9.162776e-5
472.5	9.507059e-5
473.125	8.776993e-5
473.75	9.319131e-5
474.375	8.624331e-5
475	9.220387e-5
475.625	8.934547e-5
476.25	8.571021e-5
476.875	8.650265e-5
477.5	8.056042e-5
478.125	8.662606e-5
478.75	8.316543e-5
479.375	8.04841e-5
480	7.807356e-5
480.625	8.034387e-5
481.25	7.95263e-5
481.875	7.625337e-5
482.5	7.759446e-5
483.125	7.737905e-5
483.75	7.27265e-5
484.375	7.753709e-5
485	7.538475e-5
485.625	7.205553e-5
486.25	7.046614e-5
486.875	6.901455e-5
487.5	7.063337e-5
488.125	6.399243e-5
488.75	7.022084e-5
489.375	6.647969e-5
490	6.633209e-5
490.625	6.710309e-5
491.25	6.792133e-5
491.875	6.3197e-5
492.5	6.139874e-5
493.125	6.669371e-5
493.75	5.975556e-5
494.375	5.906542e-5
495	6.083956e-5
495.625	5.868765e-5
496.25	5.574237e-5
496.875	5.769746e-5
497.5	5.535573e-5
498.125	5.94007e-5
498.75	5.989603e-5
499.375	6.4652e-5
500	5.793889e-5
500.625	5.745106e-5
501.25	5.259145e-5
501.875	4.792055e-5
502.5	5.673058e-5
503.125	5.226961e-5
503.75	5.443118e-5
504.375	5.151434e-5
505	5.409049e-5
505.625	4.888856e-5
506.25	4.948247e-5
506.875	5.299181e-5
507.5	4.464776e-5
508.125	4.815765e-5
508.75	5.015776e-5
509.375	4.42057e-5
510	4.48016e-5
510.625	4.521681e-5
511.25	4.410887e-5
511.875	3.941739e-5
512.5	3.721339e-5
513.125	4.19291e-5
513.75	3.5792e-5
514.375	4.430869e-5
515	4.329303e-5
515.625	3.98482e-5
516.25	3.671681e-5
516.875	3.646629e-5
517.5	3.716356e-5
518.125	3.197944e-5
518.75	3.602778e-5
519.375	2.76369e-5
520	2.793337e-5
520.625	2.93963e-5
521.25	2.823981e-5
521.875	2.730614e-5
522.5	2.620772e-5
523.125	2.881569e-5
523.75	3.085618e-5
524.375	2.772807e-5
525	3.015584e-5
525.625	2.584273e-5
526.25	2.471358e-5
526.875	2.175944e-5
527.5	2.182062e-5
528.125	2.218408e-5
528.75	1.822617e-5
529.375	2.584034e-5
530	1.601914e-5
530.625	2.040612e-5
531.25	1.510952e-5
531.875	1.877791e-5
532.5	1.863824e-5
533.125	1.790203e-5
533.75	2.14609e-5
534.375	1.640659e-5
535	2.257666e-5
535.625	1.94065e-5
536.25	1.580744e-5
536.875	1.496553e-5
537.5	1.272356e-5
538.125	1.50652e-5
538.75	1.760269e-5
539.375	1.828149e-5
540	1.769287e-5
540.625	1.579298e-5
541.25	2.349189e-5
541.875	1.453386e-5
542.5	1.863951e-5
543.125	1.71532e-5
543.75	1.974871e-5
544.375	1.84901e-5
545	1.681358e-5
545.625	2.12611e-5
546.25	1.546245e-5
546.875	2.539756e-5
547.5	2.066649e-5
548.125	1.827759e-5
548.75	1.755914e-5
549.375	1.958504e-5
550	2.173395e-5
550.625	2.431913e-5
551.25	2.800846e-5
551.875	2.392117e-5
552.5	2.082819e-5
553.125	2.699283e-5
553.75	2.443182e-5
554.375	2.312169e-5
555	2.418178e-5
555.625	2.367038e-5
556.25	2.022851e-5
556.875	1.864641e-5
557.5	2.674467e-5
558.125	2.018137e-5
558.75	3.035784e-5
559.375	3.040831e-5
560	2.789377e-5
560.625	2.63664e-5
561.25	2.413541e-5
561.875	2.916667e-5
562.5	2.322177e-5
563.125	2.590804e-5
563.75	2.545279e-5
564.375	2.507074e-5
565	2.859556e-5
565.625	2.920919e-5
566.25	3.07653e-5
566.875	2.805182e-5
567.5	2.670911e-5
568.125	3.281267e-5
568.75	2.982764e-5
569.375	3.48482e-5
570	2.863007e-5
570.625	2.957237e-5
571.25	3.319681e-5
571.875	2.627652e-5
572.5	3.342555e-5
573.125	2.861072e-5
573.75	3.711108e-5
574.375	3.295931e-5
575	3.668472e-5
575.625	3.893311e-5
576.25	3.094225e-5
576.875	3.816247e-5
577.5	3.552309e-5
578.125	3.61614e-5
578.75	3.353563e-5
579.375	3.804286e-5
580	3.840118e-5
580.625	3.440679e-5
581.25	3.860792e-5
581.875	3.517113e-5
582.5	3.271002e-5
583.125	4.009035e-5
583.75	4.10802e-5
584.375	4.32395e-5
585	4.113427e-5
585.625	4.415861e-5
586.25	4.246153e-5
586.875	3.988552e-5
587.5	4.458782e-5
588.125	3.421625e-5
588.75	4.205481e-5
589.375	4.133413e-5
590	4.252923e-5
590.625	4.372571e-5
591.25	4.337414e-5
591.875	4.472351e-5
592.5	4.442632e-5
593.125	5.188581e-5
593.75	4.741697e-5
594.375	4.458402e-5
595	4.524215e-5
595.625	4.040043e-5
596.25	4.255768e-5
596.875	4.779522e-5
597.5	4.45557e-5
598.125	4.848868e-5
598.75	4.636155e-5
599.375	4.976839e-5
600	4.465461e-5
600.625	4.812383e-5
601.25	5.082796e-5
601.875	4.409548e-5
602.5	4.757629e-5
603.125	4.227762e-5
603.75	4.75298e-5
604.375	4.554554e-5
605	4.968892e-5
605.625	4.78268e-5
606.25	4.094321e-5
606.875	4.482393e-5
607.5	4.787247e-5
608.125	5.042003e-5
608.75	5.251831e-5
609.375	5.082894e-5
610	4.778457e-5
610.625	4.679518e-5
611.25	4.731831e-5
611.875	5.028781e-5
612.5	4.324793e-5
613.125	4.923942e-5
613.75	4.779237e-5
614.375	4.981149e-5
615	4.863368e-5
615.625	4.760443e-5
616.25	5.166886e-5
616.875	4.768684e-5
617.5	5.482611e-5
618.125	4.809825e-5
618.75	5.211412e-5
619.375	5.167947e-5
620	5.103663e-5
620.625	5.377036e-5
621.25	4.953682e-5
621.875	4.963709e-5
622.5	5.244735e-5
623.125	5.826784e-5
623.75	5.745842e-5
624.375	5.28366e-5
625	5.806462e-5
625.625	5.404777e-5
626.25	5.538643e-5
626.875	6.364587e-5
627.5	5.333416e-5
628.125	5.539394e-5
628.75	5.249985e-5
629.375	5.996607e-5
630	5.471968e-5
630.625	5.695931e-5
631.25	6.460373e-5
631.875	5.446772e-5
632.5	6.450237e-5
633.125	6.072414e-5
633.75	6.277984e-5
634.375	6.155409e-5
635	6.243053e-5
635.625	6.554767e-5
636.25	6.39736e-5
636.875	6.662383e-5
637.5	6.568062e-5
638.125	6.811294e-5
638.75	7.047552e-5
639.375	6.625689e-5
640	6.684427e-5
640.625	6.863349e-5
641.25	6.869319e-5
641.875	7.430906e-5
642.5	7.243103e-5
643.125	7.715097e-5
643.75	6.899602e-5
644.375	7.211864e-5
645	6.915492e-5
645.625	6.548766e-5
646.25	7.36146e-5
646.875	7.22879e-5
647.5	7.923958e-5
648.125	7.575347e-5
648.75	7.870811e-5
649.375	7.43896e-5
650	7.527752e-5
650.625	8.057186e-5
651.25	7.896073e-5
651.875	7.72659e-5
652.5	7.405992e-5
653.125	7.644422e-5
653.75	7.914369e-5
654.375	7.767772e-5
655	8.314805e-5
655.625	7.801248e-5
656.25	7.59651e-5
656.875	8.386438e-5
657.5	7.878855e-5
658.125	8.333348e-5
658.75	7.786995e-5
659.375	8.275324e-5
660	7.917373e-5
660.625	7.943845e-5
661.25	8.68854e-5
661.875	8.089449e-5
