Source File Name:	Analyzer
Signal:	FFT - Vib Velocity - Magnitude

Frequency	Magnitude
[ Hz ]	[ m/s ]
20	0.002665475
20.625	0.001999243
21.25	0.001480287
21.875	0.001240279
22.5	0.001117345
23.125	0.0010643
23.75	0.0009975185
24.375	0.0009380538
25	0.0008853485
25.625	0.0008436942
26.25	0.0008260916
26.875	0.0008181185
27.5	0.0007767696
28.125	0.0007364708
28.75	0.0007225819
29.375	0.0007304336
30	0.0007260432
30.625	0.0007135463
31.25	0.0006860258
31.875	0.0006971438
32.5	0.0007283732
33.125	0.000739713
33.75	0.0007307793
34.375	0.0007214742
35	0.0007275603
35.625	0.0007376504
36.25	0.0007292681
36.875	0.000691891
37.5	0.0006560725
38.125	0.0006291554
38.75	0.0006096181
39.375	0.0005668285
40	0.0005224457
40.625	0.0004794633
41.25	0.0004708106
41.875	0.0004816769
42.5	0.0004635169
43.125	0.0004439387
43.75	0.0004359629
44.375	0.0004365446
45	0.0004369523
45.625	0.000429405
46.25	0.0004092996
46.875	0.0004082957
47.5	0.000406723
48.125	0.0004046233
48.75	0.000382538
49.375	0.0003639965
50	0.0003576194
50.625	0.0003612023
51.25	0.0003495146
51.875	0.0003265301
52.5	0.000303237
53.125	0.0002872421
53.75	0.0002902265
54.375	0.0002814106
55	0.0002598104
55.625	0.0002558275
56.25	0.0002408625
56.875	0.0002352851
57.5	0.0002443695
58.125	0.000232198
58.75	0.0002453063
59.375	0.0002492461
60	0.0002682004
60.625	0.0002598137
61.25	0.000262266
61.875	0.0002633349
62.5	0.0002681529
63.125	0.0002707949
63.75	0.0002601294
64.375	0.0002398985
65	0.0002304429
65.625	0.0002230789
66.25	0.0002131022
66.875	0.0002029824
67.5	0.0001873624
68.125	0.0001828628
68.75	0.0001773598
69.375	0.0001650492
70	0.0001550145
70.625	0.0001572133
71.25	0.0001588449
71.875	0.0001739814
72.5	0.0001772916
73.125	0.0001760576
73.75	0.0001781477
74.375	0.0001877376
75	0.0002002635
75.625	0.0002049526
76.25	0.000195262
76.875	0.0001935545
77.5	0.0001968784
78.125	0.0001920165
78.75	0.0001908651
79.375	0.0001840307
80	0.0001770928
80.625	0.0001680462
81.25	0.0001662652
81.875	0.0001512705
82.5	0.0001410202
83.125	0.0001358265
83.75	0.000139886
84.375	0.000142513
85	0.0001376511
85.625	0.0001283304
86.25	0.0001330577
86.875	0.0001370053
87.5	0.0001360932
88.125	0.000137759
88.75	0.0001339368
89.375	0.0001397234
90	0.0001440484
90.625	0.000147107
91.25	0.0001467063
91.875	0.000150112
92.5	0.0001575467
93.125	0.0001698806
93.75	0.0001600408
94.375	0.0001540801
95	0.0001607533
95.625	0.0001680458
96.25	0.0001715572
96.875	0.0001704946
97.5	0.0001567467
98.125	0.0001510722
98.75	0.000153538
99.375	0.0001501599
100	0.0001459019
100.625	0.0001329225
101.25	0.0001267622
101.875	0.0001287161
102.5	0.0001255335
103.125	0.000108112
103.75	0.0001124117
104.375	0.0001251928
105	0.0001356464
105.625	0.0001337909
106.25	0.00013971
106.875	0.0001466005
107.5	0.000165532
108.125	0.0001765559
108.75	0.0001785996
109.375	0.0001738745
110	0.0001755874
110.625	0.0001819572
111.25	0.0001845509
111.875	0.000178613
112.5	0.0001658885
113.125	0.0001698916
113.75	0.0001678255
114.375	0.0001596405
115	0.0001404068
115.625	0.0001297548
116.25	0.0001258515
116.875	0.0001348497
117.5	0.0001307848
118.125	0.0001257247
118.75	0.000119393
119.375	0.0001323353
120	0.0001489826
120.625	0.0001498643
121.25	0.000149042
121.875	0.0001597728
122.5	0.0001702208
123.125	0.0001745604
123.75	0.0001787594
124.375	0.0001758611
125	0.0001891991
125.625	0.0001958487
126.25	0.0001948165
126.875	0.000183889
127.5	0.0001770871
128.125	0.0001759539
128.75	0.0001897329
129.375	0.0001900647
130	0.0001771716
130.625	0.0001731108
131.25	0.0001790373
131.875	0.0001807729
132.5	0.0001773623
133.125	0.0001720732
133.75	0.0001668198
134.375	0.0001743313
135	0.0001757616
135.625	0.000170185
136.25	0.0001611622
136.875	0.0001641942
137.5	0.0001752082
138.125	0.0001850619
138.75	0.00017855
139.375	0.0001771085
140	0.0001837716
140.625	0.0001994683
141.25	0.0002063793
141.875	0.0002109823
142.5	0.0002153687
143.125	0.0002244055
143.75	0.0002349423
144.375	0.0002369535
145	0.0002360058
145.625	0.0002392905
146.25	0.0002519271
146.875	0.0002585969
147.5	0.0002582082
148.125	0.0002403025
148.75	0.0002401964
149.375	0.000242015
150	0.0002436349
150.625	0.0002425721
151.25	0.000235193
151.875	0.0002323454
152.5	0.0002466587
153.125	0.0002586163
153.75	0.0002642406
154.375	0.0002805009
155	0.0002935403
155.625	0.0003228299
156.25	0.0003427868
156.875	0.000360836
157.5	0.0003820474
158.125	0.0004214958
158.75	0.0004503579
159.375	0.000485372
160	0.0005108374
160.625	0.0005328782
161.25	0.0005634379
161.875	0.0005920658
162.5	0.0006152818
163.125	0.0006337023
163.75	0.0006601201
164.375	0.0006786312
165	0.0007073612
165.625	0.0007240587
166.25	0.0007358829
166.875	0.0007497918
167.5	0.0007721468
168.125	0.0007857022
168.75	0.0007953364
169.375	0.0007953027
170	0.0007820937
170.625	0.0007765207
171.25	0.0007612705
171.875	0.0007448131
172.5	0.0007132251
173.125	0.0006862509
173.75	0.0006485895
174.375	0.0006156953
175	0.0005836195
175.625	0.000546421
176.25	0.000517591
176.875	0.00049638
177.5	0.0004733015
178.125	0.0004496877
178.75	0.0004320422
179.375	0.0004063558
180	0.0003972788
180.625	0.0003843059
181.25	0.0003757998
181.875	0.0003658104
182.5	0.0003617818
183.125	0.000356341
183.75	0.0003530259
184.375	0.0003493086
185	0.000347244
185.625	0.000349355
186.25	0.0003460033
186.875	0.0003449403
187.5	0.0003365095
188.125	0.0003311707
188.75	0.0003227496
189.375	0.0003249913
190	0.0003150293
190.625	0.0003104257
191.25	0.0003031548
191.875	0.0002865043
192.5	0.0002695776
193.125	0.0002537804
193.75	0.0002405247
194.375	0.0002352522
195	0.0002294994
195.625	0.0002132615
196.25	0.0002133683
196.875	0.0002046782
197.5	0.0002073963
198.125	0.0002149674
198.75	0.0002179671
199.375	0.0002167962
200	0.0002288044
200.625	0.0002306192
201.25	0.0002373943
201.875	0.0002436393
202.5	0.0002537056
203.125	0.0002633304
203.75	0.0002670237
204.375	0.0002667327
205	0.0002603934
205.625	0.0002632661
206.25	0.0002615649
206.875	0.000260883
207.5	0.0002578348
208.125	0.0002538693
208.75	0.0002462005
209.375	0.0002486778
210	0.0002355285
210.625	0.0002222233
211.25	0.0002186034
211.875	0.0002174629
212.5	0.0002145748
213.125	0.0002102937
213.75	0.000205225
214.375	0.0002017727
215	0.0002134628
215.625	0.0002193241
216.25	0.0002237273
216.875	0.000221513
217.5	0.0002273437
218.125	0.0002323832
218.75	0.0002425222
219.375	0.0002412838
220	0.0002523773
220.625	0.0002685905
221.25	0.0002768456
221.875	0.0002818228
222.5	0.0002819492
223.125	0.0002833855
223.75	0.0002904607
224.375	0.0003054239
225	0.0003006561
225.625	0.0002996
226.25	0.0002901853
226.875	0.00029459
227.5	0.0002969612
228.125	0.0002891617
228.75	0.0002763632
229.375	0.0002717547
230	0.0002654234
230.625	0.0002590587
231.25	0.0002509091
231.875	0.0002280402
232.5	0.0002155099
233.125	0.0002094682
233.75	0.000205987
234.375	0.0001818534
235	0.0001628138
235.625	0.0001438784
236.25	0.0001364646
236.875	0.0001311048
237.5	0.0001204842
238.125	0.0001145738
238.75	0.000123919
239.375	0.000129819
240	0.0001312201
240.625	0.0001307555
241.25	0.0001206349
241.875	0.0001398606
242.5	0.0001485452
243.125	0.0001456219
243.75	0.0001338734
244.375	0.0001355615
245	0.0001365755
245.625	0.0001465238
246.25	0.0001392608
246.875	0.000122926
247.5	0.0001104548
248.125	0.000104777
248.75	9.996889e-5
249.375	8.526986e-5
250	7.165868e-5
250.625	5.557529e-5
251.25	6.937214e-5
251.875	6.081132e-5
252.5	4.58367e-5
253.125	3.699157e-5
253.75	5.060708e-5
254.375	6.271977e-5
255	6.740507e-5
255.625	5.834656e-5
256.25	6.710439e-5
256.875	7.652495e-5
257.5	8.107102e-5
258.125	8.015637e-5
258.75	6.797634e-5
259.375	6.541723e-5
260	7.793091e-5
260.625	7.738452e-5
261.25	6.378745e-5
261.875	5.726971e-5
262.5	5.491211e-5
263.125	6.900504e-5
263.75	7.035341e-5
264.375	5.690949e-5
265	3.748892e-5
265.625	3.360396e-5
266.25	3.270644e-5
266.875	3.616688e-5
267.5	2.895884e-5
268.125	9.682743e-6
268.75	7.631887e-6
269.375	1.243491e-5
270	1.639918e-5
270.625	2.150444e-5
271.25	2.696111e-5
271.875	3.096486e-5
272.5	2.384897e-5
273.125	3.47107e-5
273.75	5.459343e-5
274.375	6.904717e-5
275	6.486809e-5
275.625	5.949447e-5
276.25	6.076232e-5
276.875	7.470821e-5
277.5	8.779483e-5
278.125	8.140609e-5
278.75	6.866815e-5
279.375	6.901492e-5
280	7.688379e-5
280.625	7.605083e-5
281.25	7.370095e-5
281.875	6.1605e-5
282.5	7.996969e-5
283.125	0.0001008791
283.75	0.0001091643
284.375	9.782195e-5
285	0.0001016098
285.625	0.000113139
286.25	0.0001355671
286.875	0.0001425035
287.5	0.0001363915
288.125	0.0001397455
288.75	0.0001554495
289.375	0.0001694857
290	0.0001683691
290.625	0.0001646687
291.25	0.000153501
291.875	0.0001677598
292.5	0.0001657675
293.125	0.0001540612
293.75	0.0001329365
294.375	0.00012561
295	0.0001308112
295.625	0.0001379075
296.25	0.0001231089
296.875	0.0001026813
297.5	0.0001000875
298.125	0.0001064772
298.75	0.000116396
299.375	0.0001059062
300	0.0001019664
300.625	0.0001118622
301.25	0.0001311149
301.875	0.0001240958
302.5	0.0001208489
303.125	0.0001168324
303.75	0.0001272156
304.375	0.0001365474
305	0.0001334266
305.625	0.0001168654
306.25	0.0001215769
306.875	0.0001328987
307.5	0.0001350253
308.125	0.000134779
308.75	0.0001179497
309.375	0.0001144617
310	0.0001198507
310.625	0.0001214297
311.25	0.0001026239
311.875	0.0001016878
312.5	0.0001030958
313.125	0.000109442
313.75	0.0001065465
314.375	9.168777e-5
315	7.555376e-5
315.625	8.651749e-5
316.25	8.831741e-5
316.875	7.873995e-5
317.5	7.035198e-5
318.125	6.052277e-5
318.75	7.251836e-5
319.375	7.79688e-5
320	7.211521e-5
320.625	7.203533e-5
321.25	8.022125e-5
321.875	8.625432e-5
322.5	9.620953e-5
323.125	8.580797e-5
323.75	8.931629e-5
324.375	9.583638e-5
325	9.744632e-5
325.625	9.144456e-5
326.25	8.180139e-5
326.875	6.538551e-5
327.5	6.393815e-5
328.125	6.519386e-5
328.75	4.926508e-5
329.375	4.086778e-5
330	3.067065e-5
330.625	2.089864e-5
331.25	1.312997e-5
331.875	9.390867e-6
332.5	2.436814e-5
333.125	3.015537e-5
333.75	3.636357e-5
334.375	4.338531e-5
335	4.879217e-5
335.625	5.975927e-5
336.25	6.742826e-5
336.875	6.87045e-5
337.5	5.804402e-5
338.125	6.338934e-5
338.75	5.791602e-5
339.375	5.920515e-5
340	6.056448e-5
340.625	5.575101e-5
341.25	5.261162e-5
341.875	5.898623e-5
342.5	5.071271e-5
343.125	5.513338e-5
343.75	6.296299e-5
344.375	7.138251e-5
345	8.11397e-5
345.625	8.782398e-5
346.25	8.909051e-5
346.875	9.952341e-5
347.5	0.0001069685
348.125	0.0001111601
348.75	0.0001186587
349.375	0.0001216982
350	0.0001274009
350.625	0.0001289305
351.25	0.0001376935
351.875	0.0001347822
352.5	0.0001420641
353.125	0.000140846
353.75	0.0001425068
354.375	0.0001424646
355	0.0001409053
355.625	0.0001411016
356.25	0.0001447202
356.875	0.0001435868
357.5	0.0001485247
358.125	0.0001510324
358.75	0.0001390059
359.375	0.0001411486
360	0.0001340566
360.625	0.0001397914
361.25	0.0001401156
361.875	0.000139127
362.5	0.0001323442
363.125	0.0001417365
363.75	0.0001404054
364.375	0.0001493805
365	0.0001571662
365.625	0.0001639426
366.25	0.000172028
366.875	0.0001839567
367.5	0.0001884345
368.125	0.0001919597
368.75	0.0002050833
369.375	0.0002071669
370	0.0002135564
370.625	0.0002057254
371.25	0.0002016053
371.875	0.0002010264
372.5	0.0002074619
373.125	0.0002005967
373.75	0.0001971445
374.375	0.0001873287
375	0.0001848934
375.625	0.0001793645
376.25	0.0001738816
376.875	0.0001663421
377.5	0.0001689413
378.125	0.0001788642
378.75	0.000185736
379.375	0.0001885643
380	0.0001932618
380.625	0.0002050909
381.25	0.0002199819
381.875	0.0002264596
382.5	0.0002239619
383.125	0.0002311138
383.75	0.0002302189
384.375	0.0002391723
385	0.0002398024
385.625	0.0002348355
386.25	0.000232703
386.875	0.0002390619
387.5	0.0002293346
388.125	0.0002241985
388.75	0.0002126885
389.375	0.0002117023
390	0.0002220584
390.625	0.0002177872
391.25	0.0002077571
391.875	0.0002053257
392.5	0.0002105882
393.125	0.0002129018
393.75	0.0002210677
394.375	0.0002118207
395	0.0002195343
395.625	0.0002243651
396.25	0.0002326962
396.875	0.0002328395
397.5	0.0002338873
398.125	0.0002344039
398.75	0.000247379
399.375	0.0002492136
400	0.0002439823
400.625	0.0002480749
401.25	0.0002522543
401.875	0.0002644863
402.5	0.0002660941
403.125	0.00026445
403.75	0.0002620771
404.375	0.0002714359
405	0.0002676191
405.625	0.0002671565
406.25	0.0002613309
406.875	0.0002579527
407.5	0.000260987
408.125	0.0002620381
408.75	0.0002473624
409.375	0.0002390004
410	0.0002399246
410.625	0.0002403747
411.25	0.0002433502
411.875	0.0002408653
412.5	0.0002391716
413.125	0.0002488068
413.75	0.0002603198
414.375	0.0002624893
415	0.0002705199
415.625	0.0002713706
416.25	0.0002803543
416.875	0.0002887858
417.5	0.0002937307
418.125	0.0002878312
418.75	0.000297343
419.375	0.0002970404
420	0.0002992953
420.625	0.0002895777
421.25	0.0002778078
421.875	0.0002723255
422.5	0.0002673321
423.125	0.0002602945
423.75	0.0002545207
424.375	0.0002481616
425	0.0002420518
425.625	0.0002519192
426.25	0.0002454677
426.875	0.0002481265
427.5	0.0002461185
428.125	0.0002571592
428.75	0.0002649898
429.375	0.0002746189
430	0.0002689344
430.625	0.000278251
431.25	0.0002884816
431.875	0.0002935909
432.5	0.0002945641
433.125	0.0002917119
433.75	0.0002851418
434.375	0.0002868221
435	0.0002950913
435.625	0.0002853459
436.25	0.0002862836
436.875	0.0002799585
437.5	0.0002814798
438.125	0.000280409
438.75	0.0002717994
439.375	0.0002639859
440	0.0002718951
440.625	0.0002695673
441.25	0.0002711748
441.875	0.0002640301
442.5	0.0002585238
443.125	0.0002641535
443.75	0.0002684773
444.375	0.0002674432
445	0.0002602348
445.625	0.0002566678
446.25	0.0002621614
446.875	0.0002712996
447.5	0.0002657962
448.125	0.0002643387
448.75	0.0002669327
449.375	0.0002788995
450	0.0002770158
450.625	0.0002774301
451.25	0.0002725495
451.875	0.0002812233
452.5	0.0002888442
453.125	0.0002919753
453.75	0.0002808717
454.375	0.000271552
455	0.0002683588
455.625	0.0002653008
456.25	0.0002618945
456.875	0.0002444407
457.5	0.0002392138
458.125	0.0002398107
458.75	0.0002403475
459.375	0.0002272568
460	0.0002274147
460.625	0.0002233625
461.25	0.0002344221
461.875	0.0002341811
462.5	0.0002295488
463.125	0.0002323338
463.75	0.0002441675
464.375	0.0002584233
465	0.0002685245
465.625	0.0002635745
466.25	0.0002608875
466.875	0.0002710744
467.5	0.0002678541
468.125	0.0002681522
468.75	0.0002558959
469.375	0.000250018
470	0.0002482494
470.625	0.0002470847
471.25	0.0002320774
471.875	0.0002252426
472.5	0.0002159339
473.125	0.0002170193
473.75	0.0002143209
474.375	0.0002094251
475	0.0002009275
475.625	0.0002069642
476.25	0.0002141012
476.875	0.0002127438
477.5	0.0002120038
478.125	0.0002119092
478.75	0.000214782
479.375	0.0002186967
480	0.0002217944
480.625	0.0002132992
481.25	0.0002220896
481.875	0.000220255
482.5	0.0002247646
483.125	0.0002187286
483.75	0.0002123564
484.375	0.0002035201
485	0.0002085457
485.625	0.0002053024
486.25	0.0002013536
486.875	0.0001962317
487.5	0.0001913469
488.125	0.000196679
488.75	0.0001930688
489.375	0.0001895688
490	0.000180945
490.625	0.000178614
491.25	0.0001718182
491.875	0.0001761223
492.5	0.0001637961
493.125	0.0001610219
493.75	0.0001592616
494.375	0.0001589627
495	0.0001586609
495.625	0.0001596512
496.25	0.0001534238
496.875	0.0001629232
497.5	0.000171345
498.125	0.0001716232
498.75	0.0001740972
499.375	0.0001764658
500	0.0001775675
500.625	0.0001815899
501.25	0.0001793051
501.875	0.0001674847
502.5	0.0001704067
503.125	0.0001689302
503.75	0.0001679665
504.375	0.0001620413
505	0.0001514456
505.625	0.0001382759
506.25	0.0001402826
506.875	0.0001298084
507.5	0.0001205553
508.125	0.0001105472
508.75	0.0001064789
509.375	0.0001135724
510	0.0001187537
510.625	0.0001190544
511.25	0.0001249654
511.875	0.0001319244
512.5	0.0001333333
513.125	0.0001419935
513.75	0.0001316926
514.375	0.0001369548
515	0.0001393848
515.625	0.0001423129
516.25	0.0001356121
516.875	0.0001328582
517.5	0.0001225449
518.125	0.0001227545
518.75	0.0001186117
519.375	0.0001097325
520	0.0001029119
520.625	9.49011e-5
521.25	9.54456e-5
521.875	8.817295e-5
522.5	8.85833e-5
523.125	8.031419e-5
523.75	8.207947e-5
524.375	8.509979e-5
525	8.804863e-5
525.625	8.167866e-5
526.25	8.65442e-5
526.875	8.990365e-5
527.5	9.738937e-5
528.125	9.60436e-5
528.75	9.240714e-5
529.375	8.682859e-5
530	8.678749e-5
530.625	9.012853e-5
531.25	9.363363e-5
531.875	8.752957e-5
532.5	9.057157e-5
533.125	9.042113e-5
533.75	9.187843e-5
534.375	9.607355e-5
535	8.611021e-5
535.625	8.541757e-5
536.25	8.683563e-5
536.875	8.654578e-5
537.5	7.59359e-5
538.125	7.440407e-5
538.75	6.330322e-5
539.375	6.885833e-5
540	6.524313e-5
540.625	5.932021e-5
541.25	4.677828e-5
541.875	5.45517e-5
542.5	6.275903e-5
543.125	6.552506e-5
543.75	6.309361e-5
544.375	6.460123e-5
545	7.496036e-5
545.625	8.158253e-5
546.25	8.278238e-5
546.875	7.532982e-5
547.5	8.281886e-5
548.125	9.046902e-5
548.75	9.72357e-5
549.375	8.732437e-5
550	8.203466e-5
550.625	7.292879e-5
551.25	7.73637e-5
551.875	7.418016e-5
552.5	5.685085e-5
553.125	4.148748e-5
553.75	4.782044e-5
554.375	5.410528e-5
555	5.65754e-5
555.625	4.877119e-5
556.25	6.08331e-5
556.875	7.368108e-5
557.5	7.877636e-5
558.125	7.864704e-5
558.75	7.591303e-5
559.375	8.826749e-5
560	0.0001041417
560.625	0.00010365
561.25	9.372055e-5
561.875	9.640778e-5
562.5	9.670957e-5
563.125	0.0001119111
563.75	0.0001020204
564.375	8.870503e-5
565	8.153407e-5
565.625	9.20137e-5
566.25	9.448043e-5
566.875	8.607721e-5
567.5	7.23518e-5
568.125	7.729042e-5
568.75	8.553109e-5
569.375	8.939257e-5
570	8.479842e-5
570.625	7.603218e-5
571.25	9.350112e-5
571.875	0.0001017273
572.5	0.0001006917
573.125	8.731181e-5
573.75	9.071746e-5
574.375	9.88038e-5
575	0.0001077185
575.625	9.930441e-5
576.25	9.425595e-5
576.875	0.0001002753
577.5	0.0001207812
578.125	0.0001187723
578.75	0.0001104709
579.375	0.000108955
580	0.0001157557
580.625	0.0001281558
581.25	0.0001264702
581.875	0.0001135686
582.5	0.0001116008
583.125	0.0001227891
583.75	0.0001255877
584.375	0.000118247
585	0.0001018126
585.625	0.0001066936
586.25	0.0001109819
586.875	0.0001165285
587.5	0.0001053825
588.125	9.931882e-5
588.75	0.0001113235
589.375	0.0001270996
590	0.0001212541
590.625	0.0001188904
591.25	0.000124159
591.875	0.0001404872
592.5	0.0001526077
593.125	0.0001496658
593.75	0.0001501844
594.375	0.0001565271
595	0.000172425
595.625	0.0001660824
596.25	0.0001559124
596.875	0.0001448659
597.5	0.0001472589
598.125	0.0001512884
598.75	0.0001486125
599.375	0.0001267385
600	0.0001250443
600.625	0.0001327065
601.25	0.0001367165
601.875	0.0001299577
602.5	0.0001183373
603.125	0.0001262384
603.75	0.0001362379
604.375	0.0001391695
605	0.000135657
605.625	0.0001398525
606.25	0.0001521263
606.875	0.0001672694
607.5	0.0001589792
608.125	0.0001557239
608.75	0.0001572818
609.375	0.0001725664
610	0.0001728928
610.625	0.0001661266
611.25	0.0001539146
611.875	0.0001575031
612.5	0.0001691019
613.125	0.0001611746
613.75	0.0001490464
614.375	0.0001491407
615	0.0001566714
615.625	0.0001626679
616.25	0.0001660925
616.875	0.0001462462
617.5	0.0001574094
618.125	0.0001652064
618.75	0.0001685205
619.375	0.0001561055
620	0.0001481486
620.625	0.0001543708
621.25	0.0001710791
621.875	0.0001642887
622.5	0.0001581797
623.125	0.0001590584
623.75	0.000169871
624.375	0.0001793317
625	0.0001697081
625.625	0.0001642327
626.25	0.000171504
626.875	0.000186499
627.5	0.0001880241
628.125	0.0001834326
628.75	0.0001742829
629.375	0.0001841405
630	0.0001975642
630.625	0.0001928369
631.25	0.0001709779
631.875	0.0001716211
632.5	0.0001739759
633.125	0.0001785377
633.75	0.0001729053
634.375	0.0001528516
635	0.0001492992
635.625	0.0001594885
636.25	0.0001558546
636.875	0.0001463066
637.5	0.000142802
638.125	0.0001519699
638.75	0.0001715227
639.375	0.0001715022
640	0.0001680593
640.625	0.0001681876
641.25	0.0001909638
641.875	0.0001925194
642.5	0.0001888143
643.125	0.0001785191
643.75	0.0001828363
644.375	0.0001912624
645	0.0001970807
645.625	0.0001857828
646.25	0.0001743434
646.875	0.0001747081
647.5	0.0001786019
648.125	0.0001782554
648.75	0.0001544496
649.375	0.0001532224
650	0.000157158
650.625	0.0001652911
651.25	0.0001600248
651.875	0.00015547
652.5	0.0001555479
653.125	0.0001725678
653.75	0.0001737198
654.375	0.0001704496
655	0.0001699223
