Source File Name:	Analyzer
Signal:	FFT - Vib Velocity - Magnitude

Frequency	Magnitude
[ Hz ]	[ m/s ]
20	0.002060007
20.625	0.001390393
21.25	0.00108284
21.875	0.0009241009
22.5	0.0008252379
23.125	0.0007438764
23.75	0.0006927824
24.375	0.0006236398
25	0.0005848941
25.625	0.000544927
26.25	0.0005123159
26.875	0.0004825527
27.5	0.0004547436
28.125	0.0004284484
28.75	0.0004101048
29.375	0.0004005193
30	0.0003929669
30.625	0.0003863017
31.25	0.0003939347
31.875	0.0004020145
32.5	0.0004164698
33.125	0.0004309341
33.75	0.0004518768
34.375	0.0004741077
35	0.0004912706
35.625	0.0005103837
36.25	0.0005193021
36.875	0.0005206288
37.5	0.0005011891
38.125	0.0004876833
38.75	0.0004690108
39.375	0.0004470538
40	0.0004323547
40.625	0.0004204167
41.25	0.0004107512
41.875	0.0003974972
42.5	0.0003949227
43.125	0.0003920309
43.75	0.0003817899
44.375	0.0003701273
45	0.0003629774
45.625	0.0003642729
46.25	0.000355291
46.875	0.0003522983
47.5	0.0003505171
48.125	0.0003449384
48.75	0.0003400818
49.375	0.000337874
50	0.0003349436
50.625	0.0003286038
51.25	0.000326385
51.875	0.0003221743
52.5	0.0003169015
53.125	0.0003123764
53.75	0.0003030793
54.375	0.0003011632
55	0.000293584
55.625	0.0002846143
56.25	0.0002810105
56.875	0.0002774809
57.5	0.0002803477
58.125	0.0002684201
58.75	0.0002690183
59.375	0.0002622505
60	0.0002499042
60.625	0.0002531855
61.25	0.0002508641
61.875	0.0002413366
62.5	0.0002367459
63.125	0.0002336889
63.75	0.0002314221
64.375	0.0002272796
65	0.0002195767
65.625	0.0002155209
66.25	0.0002119859
66.875	0.000206027
67.5	0.0002023892
68.125	0.0001972094
68.75	0.0001926372
69.375	0.0001876932
70	0.000182633
70.625	0.0001823533
71.25	0.0001721772
71.875	0.0001690454
72.5	0.0001643429
73.125	0.0001655384
73.75	0.0001566766
74.375	0.0001536494
75	0.0001521316
75.625	0.000145951
76.25	0.000145177
76.875	0.0001439281
77.5	0.000143321
78.125	0.0001348951
78.75	0.0001300851
79.375	0.0001320548
80	0.0001294644
80.625	0.0001251376
81.25	0.0001194374
81.875	0.0001196038
82.5	0.0001169205
83.125	0.000117619
83.75	0.0001157953
84.375	0.0001147848
85	0.0001122116
85.625	0.0001059397
86.25	0.0001090452
86.875	0.000109858
87.5	0.0001068779
88.125	0.0001030597
88.75	0.0001030105
89.375	0.0001045807
90	0.0001005592
90.625	0.0001019626
91.25	0.0001012694
91.875	0.0001032848
92.5	0.0001006323
93.125	9.829433e-5
93.75	0.0001018288
94.375	0.0001010768
95	0.0001032559
95.625	0.0001064802
96.25	0.0001084592
96.875	0.0001059296
97.5	0.0001069085
98.125	0.000110122
98.75	0.00011007
99.375	0.0001100361
100	0.0001110087
100.625	0.0001126691
101.25	0.0001146117
101.875	0.0001184384
102.5	0.0001251044
103.125	0.0001232202
103.75	0.0001264015
104.375	0.0001259627
105	0.0001290306
105.625	0.0001300312
106.25	0.0001319751
106.875	0.0001405877
107.5	0.0001368957
108.125	0.0001404382
108.75	0.0001431791
109.375	0.0001484105
110	0.0001464868
110.625	0.000152291
111.25	0.0001557655
111.875	0.0001540288
112.5	0.0001585529
113.125	0.0001601149
113.75	0.0001666579
114.375	0.0001671647
115	0.0001663721
115.625	0.0001692249
116.25	0.0001701722
116.875	0.0001744054
117.5	0.0001772556
118.125	0.0001827748
118.75	0.0001802686
119.375	0.0001800953
120	0.0001827062
120.625	0.0001870668
121.25	0.0001911782
121.875	0.000189104
122.5	0.0001926242
123.125	0.0001966329
123.75	0.000198259
124.375	0.0001992752
125	0.0002018345
125.625	0.0002037818
126.25	0.000201165
126.875	0.000207465
127.5	0.0002132275
128.125	0.0002129276
128.75	0.0002135874
129.375	0.0002170583
130	0.0002228239
130.625	0.0002201413
131.25	0.0002204993
131.875	0.0002243634
132.5	0.0002270358
133.125	0.00022709
133.75	0.0002322487
134.375	0.0002379496
135	0.0002353067
135.625	0.0002434274
136.25	0.0002520935
136.875	0.0002529998
137.5	0.0002554693
138.125	0.0002568174
138.75	0.0002654763
139.375	0.0002664461
140	0.0002694323
140.625	0.0002763436
141.25	0.0002825259
141.875	0.0002889998
142.5	0.0002966195
143.125	0.0003046064
143.75	0.0003053843
144.375	0.0003118024
145	0.0003195195
145.625	0.0003291131
146.25	0.0003358298
146.875	0.0003443942
147.5	0.0003601705
148.125	0.0003726278
148.75	0.000383871
149.375	0.0003952518
150	0.0004108417
150.625	0.0004263479
151.25	0.0004417259
151.875	0.000461878
152.5	0.0004781375
153.125	0.0004944877
153.75	0.0005146412
154.375	0.0005401004
155	0.0005662985
155.625	0.0005868305
156.25	0.0006123891
156.875	0.0006369343
157.5	0.0006690546
158.125	0.0006931982
158.75	0.0007215905
159.375	0.000749993
160	0.0007743623
160.625	0.0008040929
161.25	0.0008365947
161.875	0.0008747707
162.5	0.0009057879
163.125	0.000938658
163.75	0.0009706629
164.375	0.001009135
165	0.001041147
165.625	0.001071247
166.25	0.001102168
166.875	0.001118835
167.5	0.001127035
168.125	0.001120207
168.75	0.001106462
169.375	0.001073821
170	0.00103175
170.625	0.0009850309
171.25	0.000938212
171.875	0.0008875785
172.5	0.0008352463
173.125	0.0007920932
173.75	0.0007475409
174.375	0.0007129547
175	0.00068117
175.625	0.0006547512
176.25	0.0006310696
176.875	0.0006066191
177.5	0.0005908818
178.125	0.000575443
178.75	0.0005612399
179.375	0.0005423183
180	0.0005327334
180.625	0.0005248176
181.25	0.0005150393
181.875	0.0005123555
182.5	0.000507966
183.125	0.000503998
183.75	0.0004961597
184.375	0.0004928752
185	0.0004899317
185.625	0.0004820475
186.25	0.000474505
186.875	0.0004673675
187.5	0.0004653915
188.125	0.0004526444
188.75	0.0004477345
189.375	0.0004437985
190	0.0004371306
190.625	0.0004299323
191.25	0.0004219649
191.875	0.0004160999
192.5	0.00040647
193.125	0.0004007368
193.75	0.0003967457
194.375	0.0003928844
195	0.0003844226
195.625	0.0003752234
196.25	0.0003757892
196.875	0.0003714128
197.5	0.0003651005
198.125	0.000357269
198.75	0.0003495384
199.375	0.0003424538
200	0.000336767
200.625	0.0003353761
201.25	0.0003285759
201.875	0.0003201403
202.5	0.0003114653
203.125	0.0003106497
203.75	0.0003088006
204.375	0.0003025435
205	0.0003035987
205.625	0.0003017395
206.25	0.0003017709
206.875	0.0003061647
207.5	0.0003094713
208.125	0.000316112
208.75	0.0003163567
209.375	0.0003227663
210	0.0003271178
210.625	0.0003305257
211.25	0.0003351232
211.875	0.0003404507
212.5	0.0003458877
213.125	0.0003456377
213.75	0.0003521074
214.375	0.0003585005
215	0.0003665521
215.625	0.0003720892
216.25	0.0003779861
216.875	0.0003851407
217.5	0.0003872784
218.125	0.0003968732
218.75	0.0004060733
219.375	0.0004144112
220	0.0004192388
220.625	0.0004253533
221.25	0.0004384976
221.875	0.000445791
222.5	0.0004550401
223.125	0.0004633236
223.75	0.0004738448
224.375	0.0004793865
225	0.0004850896
225.625	0.0004965418
226.25	0.0004995041
226.875	0.0005023767
227.5	0.0004966149
228.125	0.0004966306
228.75	0.0004902119
229.375	0.000480022
230	0.0004720233
230.625	0.0004620031
231.25	0.0004477566
231.875	0.0004274819
232.5	0.0004122196
233.125	0.0003917766
233.75	0.0003735401
234.375	0.0003546637
235	0.0003375494
235.625	0.0003240416
236.25	0.0003058128
236.875	0.0002956396
237.5	0.000287969
238.125	0.0002788095
238.75	0.0002685557
239.375	0.0002593478
240	0.0002531849
240.625	0.0002431211
241.25	0.0002423032
241.875	0.0002367012
242.5	0.000231277
243.125	0.000226446
243.75	0.0002256817
244.375	0.0002260768
245	0.0002200071
245.625	0.0002199661
246.25	0.0002161383
246.875	0.0002122737
247.5	0.0002059219
248.125	0.0002026385
248.75	0.0002039755
249.375	0.0001980204
250	0.0001977692
250.625	0.0001982008
251.25	0.0001934848
251.875	0.0001902263
252.5	0.0001908639
253.125	0.0001931184
253.75	0.0001880693
254.375	0.0001838839
255	0.0001838222
255.625	0.0001881744
256.25	0.000189308
256.875	0.0001864767
257.5	0.0001898001
258.125	0.000184529
258.75	0.0001806448
259.375	0.0001805626
260	0.0001813699
260.625	0.0001772867
261.25	0.0001730847
261.875	0.0001780089
262.5	0.0001781254
263.125	0.0001773384
263.75	0.0001747279
264.375	0.0001706212
265	0.0001665031
265.625	0.0001585738
266.25	0.0001588685
266.875	0.000156647
267.5	0.0001545302
268.125	0.0001522461
268.75	0.0001507326
269.375	0.0001480718
270	0.0001425973
270.625	0.0001413319
271.25	0.0001347792
271.875	0.0001325097
272.5	0.000132009
273.125	0.0001319873
273.75	0.0001378277
274.375	0.0001402115
275	0.0001448572
275.625	0.0001454221
276.25	0.0001480384
276.875	0.0001538643
277.5	0.0001597956
278.125	0.0001675057
278.75	0.0001667899
279.375	0.0001731149
280	0.0001791861
280.625	0.0001861725
281.25	0.0001952244
281.875	0.0002000258
282.5	0.0002038349
283.125	0.0002034044
283.75	0.0002094158
284.375	0.0002123266
285	0.0002144877
285.625	0.0002154876
286.25	0.0002177321
286.875	0.0002261291
287.5	0.0002253791
288.125	0.0002281019
288.75	0.0002309275
289.375	0.0002304222
290	0.0002282169
290.625	0.0002285458
291.25	0.0002322803
291.875	0.0002313627
292.5	0.000235551
293.125	0.0002402384
293.75	0.0002445485
294.375	0.0002433685
295	0.0002419455
295.625	0.0002488541
296.25	0.0002487912
296.875	0.000251551
297.5	0.0002553025
298.125	0.0002586128
298.75	0.0002591014
299.375	0.0002589403
300	0.0002643998
300.625	0.0002619695
301.25	0.0002621112
301.875	0.0002622483
302.5	0.0002626343
303.125	0.0002633398
303.75	0.0002607225
304.375	0.0002635706
305	0.0002618823
305.625	0.0002602421
306.25	0.0002588559
306.875	0.0002602343
307.5	0.0002598173
308.125	0.0002597272
308.75	0.0002625774
309.375	0.0002587581
310	0.000256592
310.625	0.0002563024
311.25	0.0002578212
311.875	0.0002599446
312.5	0.000256583
313.125	0.0002597445
313.75	0.0002620013
314.375	0.0002641934
315	0.0002657686
315.625	0.0002658326
316.25	0.0002643556
316.875	0.0002606321
317.5	0.0002670571
318.125	0.0002702055
318.75	0.0002708841
319.375	0.0002688142
320	0.0002706202
320.625	0.0002771417
321.25	0.0002766293
321.875	0.0002785835
322.5	0.0002789675
323.125	0.0002804068
323.75	0.0002813822
324.375	0.0002842906
325	0.0002912531
325.625	0.0002883287
326.25	0.0002902145
326.875	0.000292224
327.5	0.0002955159
328.125	0.0002964025
328.75	0.0002967525
329.375	0.0003034231
330	0.0003029279
330.625	0.0003036864
331.25	0.0003032483
331.875	0.0003088787
332.5	0.0003126786
333.125	0.0003134123
333.75	0.0003185891
334.375	0.0003173231
335	0.0003178927
335.625	0.0003186089
336.25	0.0003239101
336.875	0.0003247373
337.5	0.0003239824
338.125	0.0003296025
338.75	0.0003311136
339.375	0.0003356386
340	0.0003376481
340.625	0.0003384732
341.25	0.0003388626
341.875	0.0003367027
342.5	0.000339249
343.125	0.0003405925
343.75	0.0003433013
344.375	0.0003465524
345	0.0003518609
345.625	0.0003515325
346.25	0.0003506147
346.875	0.0003548631
347.5	0.000353397
348.125	0.0003551034
348.75	0.0003566229
349.375	0.0003566375
350	0.0003590827
350.625	0.0003595115
351.25	0.0003661921
351.875	0.0003687527
352.5	0.0003680592
353.125	0.0003668189
353.75	0.0003695681
354.375	0.0003742533
355	0.0003732443
355.625	0.0003771787
356.25	0.000377008
356.875	0.0003767117
357.5	0.0003795971
358.125	0.0003849085
358.75	0.0003894567
359.375	0.0003861189
360	0.0003893248
360.625	0.0003923466
361.25	0.0003955532
361.875	0.0003953231
362.5	0.0003937344
363.125	0.0003972293
363.75	0.0003935738
364.375	0.0003970748
365	0.0004024249
365.625	0.0004035591
366.25	0.0004008749
366.875	0.0003997001
367.5	0.0004009308
368.125	0.0003972821
368.75	0.0003990083
369.375	0.0004001592
370	0.0004029218
370.625	0.0004010621
371.25	0.0003985152
371.875	0.0004035945
372.5	0.0003993501
373.125	0.0003963695
373.75	0.0003933894
374.375	0.0003914277
375	0.0003887464
375.625	0.0003895237
376.25	0.0003952585
376.875	0.0003907673
377.5	0.0003879803
378.125	0.0003839114
378.75	0.0003816146
379.375	0.0003790669
380	0.0003752284
380.625	0.000374573
381.25	0.0003698384
381.875	0.0003664952
382.5	0.0003639425
383.125	0.0003645251
383.75	0.0003611007
384.375	0.0003541043
385	0.0003552731
385.625	0.0003510686
386.25	0.0003471965
386.875	0.0003429834
387.5	0.0003396581
388.125	0.000337287
388.75	0.0003295423
389.375	0.000328316
390	0.0003256772
390.625	0.0003229646
391.25	0.0003184654
391.875	0.0003188387
392.5	0.0003167247
393.125	0.0003060538
393.75	0.0003038766
394.375	0.0003027974
395	0.0002977699
395.625	0.000292351
396.25	0.0002899679
396.875	0.0002903568
397.5	0.0002855995
398.125	0.0002858147
398.75	0.0002827166
399.375	0.0002770216
400	0.0002714983
400.625	0.0002688865
401.25	0.0002706358
401.875	0.0002639866
402.5	0.0002631941
403.125	0.0002634651
403.75	0.0002621196
404.375	0.0002584386
405	0.0002548008
405.625	0.0002534111
406.25	0.0002465094
406.875	0.000245892
407.5	0.0002450494
408.125	0.0002423726
408.75	0.0002439787
409.375	0.0002435357
410	0.0002447903
410.625	0.0002390658
411.25	0.0002355685
411.875	0.0002327479
412.5	0.0002314056
413.125	0.0002307948
413.75	0.0002265369
414.375	0.0002283715
415	0.0002238554
415.625	0.000225018
416.25	0.0002282061
416.875	0.0002250691
417.5	0.0002209721
418.125	0.00021579
418.75	0.0002152799
419.375	0.0002130059
420	0.0002115626
420.625	0.0002112556
421.25	0.0002110272
421.875	0.0002098352
422.5	0.0002052898
423.125	0.0002089722
423.75	0.0002050384
424.375	0.0001978192
425	0.0001970294
425.625	0.0001955582
426.25	0.0001945179
426.875	0.000192734
427.5	0.0001975651
428.125	0.0001965621
428.75	0.0001908469
429.375	0.0001882279
430	0.0001852793
430.625	0.0001839418
431.25	0.0001785855
431.875	0.0001795877
432.5	0.0001809247
433.125	0.0001780688
433.75	0.0001814722
434.375	0.0001827256
435	0.0001793829
435.625	0.0001701133
436.25	0.0001690978
436.875	0.0001689681
437.5	0.0001666789
438.125	0.000168688
438.75	0.0001673571
439.375	0.0001696111
440	0.0001677363
440.625	0.000168295
441.25	0.0001677812
441.875	0.0001611421
442.5	0.0001583383
443.125	0.000156122
443.75	0.0001594043
444.375	0.0001573224
445	0.0001588913
445.625	0.0001617779
446.25	0.0001580229
446.875	0.0001554865
447.5	0.0001511467
448.125	0.0001504206
448.75	0.0001473556
449.375	0.0001473367
450	0.0001475427
450.625	0.0001433286
451.25	0.0001414877
451.875	0.0001393478
452.5	0.0001401
453.125	0.0001346302
453.75	0.0001280456
454.375	0.0001279233
455	0.000123623
455.625	0.000121453
456.25	0.0001192408
456.875	0.0001174722
457.5	0.0001098975
458.125	0.000103656
458.75	0.0001030704
459.375	9.889418e-5
460	9.464992e-5
460.625	8.800949e-5
461.25	8.609732e-5
461.875	8.004754e-5
462.5	7.092324e-5
463.125	6.903362e-5
463.75	6.605937e-5
464.375	6.035913e-5
465	5.33734e-5
465.625	5.155191e-5
466.25	4.543821e-5
466.875	3.600817e-5
467.5	3.525888e-5
468.125	2.864704e-5
468.75	2.222995e-5
469.375	1.558955e-5
470	1.554593e-5
470.625	1.503346e-5
471.25	8.953933e-6
471.875	1.051126e-5
472.5	1.409832e-5
473.125	1.921859e-5
473.75	2.789448e-5
474.375	2.827122e-5
475	3.056943e-5
475.625	3.772818e-5
476.25	4.27999e-5
476.875	4.695874e-5
477.5	4.748561e-5
478.125	5.427329e-5
478.75	5.789821e-5
479.375	6.188903e-5
480	6.697793e-5
480.625	6.939152e-5
481.25	7.278987e-5
481.875	7.395723e-5
482.5	8.193649e-5
483.125	8.449096e-5
483.75	8.555468e-5
484.375	8.973629e-5
485	9.215433e-5
485.625	9.382315e-5
486.25	9.314721e-5
486.875	9.942561e-5
487.5	0.0001021449
488.125	0.000104303
488.75	0.0001063666
489.375	0.0001080751
490	0.0001127903
490.625	0.0001103776
491.25	0.0001147069
491.875	0.000117903
492.5	0.0001151607
493.125	0.0001167947
493.75	0.000121695
494.375	0.0001263608
495	0.0001237949
495.625	0.0001246259
496.25	0.0001266429
496.875	0.0001273885
497.5	0.0001276439
498.125	0.0001304367
498.75	0.0001363096
499.375	0.0001314746
500	0.0001328988
500.625	0.000138276
501.25	0.0001384827
501.875	0.0001380356
502.5	0.0001402033
503.125	0.0001459214
503.75	0.0001434942
504.375	0.0001430851
505	0.0001456618
505.625	0.0001450238
506.25	0.0001468599
506.875	0.0001476668
507.5	0.0001505779
508.125	0.0001502756
508.75	0.0001521886
509.375	0.0001568765
510	0.0001562205
510.625	0.0001536508
511.25	0.0001492557
511.875	0.0001519334
512.5	0.0001529397
513.125	0.0001561848
513.75	0.0001581728
514.375	0.0001548903
515	0.0001558018
515.625	0.0001550787
516.25	0.0001552139
516.875	0.00015028
517.5	0.0001453611
518.125	0.0001456943
518.75	0.0001468729
519.375	0.0001495405
520	0.000147525
520.625	0.0001478287
521.25	0.0001434007
521.875	0.0001382967
522.5	0.0001365525
523.125	0.0001324579
523.75	0.00012991
524.375	0.0001251483
525	0.0001281261
525.625	0.0001279576
526.25	0.0001233865
526.875	0.0001230291
527.5	0.0001191473
528.125	0.0001154596
528.75	0.0001056808
529.375	0.0001042196
530	0.0001044435
530.625	0.0001013944
531.25	0.000101345
531.875	0.0001013688
532.5	9.891581e-5
533.125	9.140361e-5
533.75	9.203805e-5
534.375	9.093778e-5
535	8.394777e-5
535.625	8.340098e-5
536.25	8.344927e-5
536.875	8.470793e-5
537.5	8.413964e-5
538.125	8.422299e-5
538.75	8.543493e-5
539.375	8.357936e-5
540	8.522227e-5
540.625	8.573286e-5
541.25	8.680161e-5
541.875	8.650479e-5
542.5	8.957968e-5
543.125	9.531949e-5
543.75	9.427287e-5
544.375	9.719699e-5
545	0.0001004351
545.625	0.0001020312
546.25	0.0001050785
546.875	0.0001054373
547.5	0.0001086426
548.125	0.0001088831
548.75	0.0001138417
549.375	0.0001187297
550	0.000120092
550.625	0.0001220722
551.25	0.0001222057
551.875	0.000128945
552.5	0.0001277376
553.125	0.0001262193
553.75	0.0001270877
554.375	0.0001293612
555	0.0001313581
555.625	0.000134505
556.25	0.000140111
556.875	0.000136732
557.5	0.0001361718
558.125	0.0001394499
558.75	0.0001399965
559.375	0.0001393305
560	0.0001350973
560.625	0.0001389641
561.25	0.0001383265
561.875	0.0001365931
562.5	0.0001402098
563.125	0.000141025
563.75	0.0001394329
564.375	0.0001356514
565	0.0001388289
565.625	0.0001362264
566.25	0.0001336395
566.875	0.0001355659
567.5	0.000136763
568.125	0.0001352792
568.75	0.0001312012
569.375	0.0001329965
570	0.0001325089
570.625	0.0001307581
571.25	0.0001307544
571.875	0.000129217
572.5	0.0001305225
573.125	0.000127374
573.75	0.0001294596
574.375	0.0001301236
575	0.0001250834
575.625	0.0001243821
576.25	0.0001246287
576.875	0.0001270502
577.5	0.0001249847
578.125	0.0001258966
578.75	0.0001242212
579.375	0.0001222953
580	0.0001226937
580.625	0.0001199702
581.25	0.000121796
581.875	0.0001187464
582.5	0.0001203181
583.125	0.0001230252
583.75	0.0001198385
584.375	0.0001192425
585	0.0001163344
585.625	0.0001157944
586.25	0.0001104377
586.875	0.0001105592
587.5	0.0001124457
588.125	0.0001123497
588.75	0.0001140469
589.375	0.0001107641
590	0.0001077361
590.625	0.0001008466
591.25	9.887677e-5
591.875	0.0001000358
592.5	9.674433e-5
593.125	9.341859e-5
593.75	9.191158e-5
594.375	9.609477e-5
595	9.238702e-5
595.625	8.878126e-5
596.25	8.602001e-5
596.875	7.729846e-5
597.5	7.409788e-5
598.125	7.244177e-5
598.75	7.432298e-5
599.375	7.113019e-5
600	6.776315e-5
600.625	6.901704e-5
601.25	6.535374e-5
601.875	6.083881e-5
602.5	5.621779e-5
603.125	5.563817e-5
603.75	5.291482e-5
604.375	4.925358e-5
605	5.337894e-5
605.625	5.312658e-5
606.25	5.283728e-5
606.875	5.520753e-5
607.5	5.558716e-5
608.125	5.472884e-5
608.75	5.22645e-5
609.375	5.778408e-5
610	5.836632e-5
610.625	5.994107e-5
611.25	6.629345e-5
611.875	6.927485e-5
612.5	7.47325e-5
613.125	7.679986e-5
613.75	8.066263e-5
614.375	8.05637e-5
615	8.194859e-5
615.625	8.742665e-5
616.25	9.177945e-5
616.875	9.692491e-5
617.5	9.784946e-5
618.125	0.0001035895
618.75	0.0001062761
619.375	0.0001071778
620	0.0001128763
620.625	0.0001138041
621.25	0.0001166448
621.875	0.0001184377
622.5	0.0001218068
623.125	0.0001245927
623.75	0.0001263741
624.375	0.0001304958
625	0.0001328881
625.625	0.0001355423
626.25	0.0001320765
626.875	0.0001356231
627.5	0.0001402061
628.125	0.0001385366
628.75	0.000139329
629.375	0.0001392306
630	0.0001416724
630.625	0.0001417405
631.25	0.0001468571
631.875	0.0001493378
632.5	0.0001449092
633.125	0.000142827
633.75	0.0001433475
634.375	0.0001471956
635	0.00014419
635.625	0.000143198
636.25	0.00014643
636.875	0.0001447588
637.5	0.0001443569
638.125	0.0001445676
638.75	0.0001450326
639.375	0.0001393981
640	0.0001393265
640.625	0.0001423472
641.25	0.0001400855
641.875	0.0001409482
642.5	0.0001392605
643.125	0.0001401772
643.75	0.0001373877
644.375	0.0001358174
645	0.0001376249
645.625	0.0001366488
646.25	0.0001379211
646.875	0.000136311
647.5	0.0001360451
648.125	0.0001319799
648.75	0.000131219
649.375	0.0001334341
650	0.0001312239
650.625	0.0001325378
651.25	0.0001313261
651.875	0.0001343243
