Source File Name:	Analyzer
Signal:	FFT - Vib Velocity - Magnitude

Frequency	Magnitude
[ Hz ]	[ m/s ]
20	0.00237194
20.625	0.001633012
21.25	0.001264398
21.875	0.001102941
22.5	0.0009980917
23.125	0.0009330599
23.75	0.0008890086
24.375	0.0008103609
25	0.000760265
25.625	0.000707262
26.25	0.0006674554
26.875	0.0006197729
27.5	0.0005855816
28.125	0.0005381225
28.75	0.0005027542
29.375	0.0004620119
30	0.0004282104
30.625	0.0003987251
31.25	0.0003812001
31.875	0.0003700275
32.5	0.0003707995
33.125	0.0003854534
33.75	0.0003976366
34.375	0.0004283608
35	0.0004542806
35.625	0.0004759942
36.25	0.0004982932
36.875	0.0005075373
37.5	0.0004969239
38.125	0.000485705
38.75	0.0004651884
39.375	0.000439604
40	0.000426147
40.625	0.0004231317
41.25	0.0004106899
41.875	0.000403189
42.5	0.0004002733
43.125	0.0003900823
43.75	0.0003889372
44.375	0.0003851063
45	0.0003931049
45.625	0.0003908953
46.25	0.0003996165
46.875	0.000400291
47.5	0.0004095567
48.125	0.0004176937
48.75	0.0004215569
49.375	0.0004368788
50	0.0004475451
50.625	0.0004594106
51.25	0.0004652555
51.875	0.0004774986
52.5	0.0004839308
53.125	0.0004870928
53.75	0.0004930307
54.375	0.000492613
55	0.0004986295
55.625	0.0004964113
56.25	0.0005031903
56.875	0.0005055718
57.5	0.0005017954
58.125	0.0005169696
58.75	0.0005234644
59.375	0.0005080934
60	0.0005145661
60.625	0.0005199512
61.25	0.0005198771
61.875	0.0005199746
62.5	0.0005169801
63.125	0.0005110771
63.75	0.000511502
64.375	0.0005010231
65	0.0005014092
65.625	0.0004924463
66.25	0.0004904232
66.875	0.0004823902
67.5	0.0004754286
68.125	0.0004656801
68.75	0.0004573596
69.375	0.0004610545
70	0.0004516704
70.625	0.0004493561
71.25	0.0004394129
71.875	0.0004327076
72.5	0.0004195842
73.125	0.0004138322
73.75	0.0004055885
74.375	0.0004001748
75	0.0003931695
75.625	0.0003840708
76.25	0.00037485
76.875	0.0003663544
77.5	0.0003581756
78.125	0.0003539865
78.75	0.0003507321
79.375	0.0003472961
80	0.0003400488
80.625	0.0003442037
81.25	0.0003400446
81.875	0.0003373449
82.5	0.000334196
83.125	0.0003308944
83.75	0.0003310468
84.375	0.0003297853
85	0.000326849
85.625	0.000323302
86.25	0.0003269934
86.875	0.0003192747
87.5	0.0003168613
88.125	0.0003094653
88.75	0.0003100169
89.375	0.0003123951
90	0.0003155939
90.625	0.0003156672
91.25	0.0003146904
91.875	0.0003128028
92.5	0.0003115652
93.125	0.0003131228
93.75	0.0003124473
94.375	0.0003108681
95	0.0003078668
95.625	0.0003044747
96.25	0.000298582
96.875	0.0002888016
97.5	0.0002928966
98.125	0.0002838785
98.75	0.0002812371
99.375	0.0002714876
100	0.0002731962
100.625	0.0002661004
101.25	0.0002656501
101.875	0.0002627326
102.5	0.0002579693
103.125	0.0002550967
103.75	0.0002430986
104.375	0.0002432237
105	0.0002362628
105.625	0.0002317454
106.25	0.0002212598
106.875	0.000216205
107.5	0.0002046623
108.125	0.0001944269
108.75	0.0001885238
109.375	0.0001832432
110	0.0001775227
110.625	0.000171313
111.25	0.0001670375
111.875	0.0001629883
112.5	0.000157503
113.125	0.000156539
113.75	0.0001499795
114.375	0.0001490382
115	0.0001421826
115.625	0.0001448546
116.25	0.0001409494
116.875	0.0001390817
117.5	0.0001366084
118.125	0.0001389088
118.75	0.0001345157
119.375	0.0001278529
120	0.0001298238
120.625	0.0001315589
121.25	0.0001368612
121.875	0.0001311915
122.5	0.0001322842
123.125	0.0001330138
123.75	0.0001411095
124.375	0.0001364614
125	0.0001451227
125.625	0.0001503138
126.25	0.0001527479
126.875	0.0001552179
127.5	0.0001597057
128.125	0.0001600169
128.75	0.0001608056
129.375	0.0001617091
130	0.0001560041
130.625	0.0001565616
131.25	0.0001565816
131.875	0.0001546385
132.5	0.0001565185
133.125	0.0001579771
133.75	0.0001549415
134.375	0.0001500981
135	0.0001528382
135.625	0.0001467396
136.25	0.0001522647
136.875	0.0001536343
137.5	0.0001533987
138.125	0.0001530346
138.75	0.0001527473
139.375	0.0001471844
140	0.0001430526
140.625	0.0001435532
141.25	0.0001347743
141.875	0.0001336959
142.5	0.0001309481
143.125	0.0001276763
143.75	0.0001246429
144.375	0.0001281288
145	0.0001196433
145.625	0.0001211006
146.25	0.0001223063
146.875	0.0001251302
147.5	0.000135364
148.125	0.000145059
148.75	0.0001475386
149.375	0.000160785
150	0.0001781707
150.625	0.0001867373
151.25	0.0002004283
151.875	0.0002218366
152.5	0.0002344364
153.125	0.0002560788
153.75	0.0002766589
154.375	0.0003001142
155	0.0003258873
155.625	0.0003531946
156.25	0.0003675038
156.875	0.0003980543
157.5	0.0004247304
158.125	0.0004538268
158.75	0.0004897296
159.375	0.0005274047
160	0.0005595489
160.625	0.0005912743
161.25	0.0006286909
161.875	0.0006650545
162.5	0.0007047384
163.125	0.0007398788
163.75	0.0007755095
164.375	0.0008104215
165	0.0008363427
165.625	0.0008625735
166.25	0.0008794427
166.875	0.0008828285
167.5	0.0008688244
168.125	0.0008465716
168.75	0.0008088218
169.375	0.0007662144
170	0.0007156506
170.625	0.0006543459
171.25	0.0006015879
171.875	0.0005399732
172.5	0.0004833547
173.125	0.0004290967
173.75	0.000386754
174.375	0.0003328019
175	0.0002978438
175.625	0.0002597725
176.25	0.0002278204
176.875	0.0001954298
177.5	0.0001723867
178.125	0.0001426455
178.75	0.0001163351
179.375	9.973771e-5
180	7.833439e-5
180.625	7.154141e-5
181.25	6.63557e-5
181.875	7.055586e-5
182.5	7.323067e-5
183.125	8.42161e-5
183.75	9.46562e-5
184.375	9.968115e-5
185	0.0001062247
185.625	0.0001176234
186.25	0.000119417
186.875	0.0001259128
187.5	0.0001286636
188.125	0.0001333298
188.75	0.0001281928
189.375	0.0001375813
190	0.0001413769
190.625	0.000150744
191.25	0.0001577508
191.875	0.0001646839
192.5	0.0001715195
193.125	0.0001745749
193.75	0.0001799355
194.375	0.0001848048
195	0.0001951984
195.625	0.0001962433
196.25	0.0001969799
196.875	0.0002003019
197.5	0.0001957958
198.125	0.0001960139
198.75	0.0001976188
199.375	0.0001997784
200	0.0001954654
200.625	0.0001965976
201.25	0.0001969315
201.875	0.0001961273
202.5	0.0002006082
203.125	0.0001992037
203.75	0.0002029841
204.375	0.0002028275
205	0.0002085201
205.625	0.0002054139
206.25	0.0002056544
206.875	0.0002058072
207.5	0.0002046694
208.125	0.0002033345
208.75	0.0002001772
209.375	0.000201472
210	0.0002011836
210.625	0.0002030828
211.25	0.0001987689
211.875	0.0002019109
212.5	0.0002034806
213.125	0.0001967421
213.75	0.0001973927
214.375	0.0001990342
215	0.0001957908
215.625	0.0001922301
216.25	0.0001903651
216.875	0.0001812686
217.5	0.0001721035
218.125	0.0001720356
218.75	0.0001681106
219.375	0.0001693211
220	0.0001651595
220.625	0.0001667703
221.25	0.0001609739
221.875	0.0001585025
222.5	0.0001576224
223.125	0.0001594218
223.75	0.0001657132
224.375	0.0001587098
225	0.0001590038
225.625	0.0001525557
226.25	0.0001490979
226.875	0.0001367193
227.5	0.0001388922
228.125	0.0001303671
228.75	0.0001222751
229.375	0.0001168494
230	0.0001081332
230.625	0.0001019832
231.25	9.253849e-5
231.875	9.123886e-5
232.5	7.939804e-5
233.125	8.674446e-5
233.75	8.038095e-5
234.375	9.667137e-5
235	0.0001080528
235.625	0.000124893
236.25	0.0001362527
236.875	0.0001536255
237.5	0.0001685895
238.125	0.0001839712
238.75	0.0002015045
239.375	0.0002128256
240	0.0002321913
240.625	0.0002460581
241.25	0.0002629159
241.875	0.0002744484
242.5	0.0002903639
243.125	0.000299149
243.75	0.0003105999
244.375	0.0003246562
245	0.0003324554
245.625	0.0003510165
246.25	0.0003643706
246.875	0.0003772285
247.5	0.000385793
248.125	0.000396867
248.75	0.0004010586
249.375	0.0004153988
250	0.0004292153
250.625	0.0004306542
251.25	0.0004385501
251.875	0.0004413833
252.5	0.0004436125
253.125	0.0004447463
253.75	0.0004515102
254.375	0.0004564401
255	0.0004574123
255.625	0.0004614231
256.25	0.0004587967
256.875	0.0004628849
257.5	0.0004631598
258.125	0.000459078
258.75	0.0004556736
259.375	0.0004546782
260	0.0004452439
260.625	0.0004350558
261.25	0.0004356471
261.875	0.0004199051
262.5	0.0004085885
263.125	0.0004023513
263.75	0.00038639
264.375	0.0003697894
265	0.000359373
265.625	0.000348808
266.25	0.0003332497
266.875	0.0003229041
267.5	0.0003093402
268.125	0.0002928761
268.75	0.0002783577
269.375	0.000255618
270	0.0002405712
270.625	0.0002211132
271.25	0.0002061135
271.875	0.000186022
272.5	0.0001777439
273.125	0.0001582755
273.75	0.0001527821
274.375	0.0001498717
275	0.0001499941
275.625	0.0001573602
276.25	0.0001638127
276.875	0.0001726655
277.5	0.0001813457
278.125	0.0001896281
278.75	0.0002114048
279.375	0.0002273302
280	0.00024047
280.625	0.0002604883
281.25	0.0002742323
281.875	0.0002892097
282.5	0.0003049741
283.125	0.0003305749
283.75	0.0003444577
284.375	0.0003728776
285	0.0003876062
285.625	0.0004022125
286.25	0.0004117417
286.875	0.0004312911
287.5	0.0004445298
288.125	0.0004582572
288.75	0.000474771
289.375	0.0004855593
290	0.0004980837
290.625	0.0005105718
291.25	0.0005196283
291.875	0.0005358958
292.5	0.0005529391
293.125	0.0005651347
293.75	0.0005770955
294.375	0.0005890059
295	0.0005987248
295.625	0.0006048894
296.25	0.0006153076
296.875	0.00061992
297.5	0.0006313846
298.125	0.0006319429
298.75	0.0006387223
299.375	0.0006365629
300	0.0006415446
300.625	0.0006395098
301.25	0.0006404826
301.875	0.0006425536
302.5	0.0006421092
303.125	0.0006428297
303.75	0.0006394717
304.375	0.0006414863
305	0.0006324211
305.625	0.0006272548
306.25	0.0006174716
306.875	0.000607924
307.5	0.000594871
308.125	0.0005876421
308.75	0.0005777128
309.375	0.0005619001
310	0.0005519199
310.625	0.0005355245
311.25	0.0005178196
311.875	0.0005106616
312.5	0.0004988969
313.125	0.0004841552
313.75	0.0004691282
314.375	0.0004558467
315	0.000434357
315.625	0.000420103
316.25	0.0004015343
316.875	0.0003828117
317.5	0.0003708599
318.125	0.0003453403
318.75	0.0003253422
319.375	0.0003073862
320	0.0002921926
320.625	0.000268636
321.25	0.0002612868
321.875	0.0002435172
322.5	0.0002285151
323.125	0.0002201384
323.75	0.0002133854
324.375	0.0002069763
325	0.0002041155
325.625	0.0002033577
326.25	0.0002006244
326.875	0.000206831
327.5	0.0002046001
328.125	0.000215866
328.75	0.0002267119
329.375	0.0002404844
330	0.0002449381
330.625	0.0002599062
331.25	0.0002680772
331.875	0.0002826639
332.5	0.0002965808
333.125	0.0003146564
333.75	0.0003279889
334.375	0.0003427687
335	0.0003580288
335.625	0.0003754975
336.25	0.0003896395
336.875	0.0004026905
337.5	0.0004154022
338.125	0.0004307388
338.75	0.0004383958
339.375	0.0004460588
340	0.0004600473
340.625	0.0004650161
341.25	0.0004685604
341.875	0.0004696659
342.5	0.0004819325
343.125	0.0004798727
343.75	0.0004934266
344.375	0.0004923564
345	0.0005006339
345.625	0.0004995762
346.25	0.0004999063
346.875	0.0004969831
347.5	0.0005011191
348.125	0.0005023993
348.75	0.0004931851
349.375	0.000492019
350	0.0004812018
350.625	0.0004745009
351.25	0.0004646084
351.875	0.0004593224
352.5	0.0004479994
353.125	0.0004421457
353.75	0.0004311896
354.375	0.0004208122
355	0.0004103078
355.625	0.0004031626
356.25	0.0003872755
356.875	0.0003821214
357.5	0.0003672129
358.125	0.0003571087
358.75	0.0003386571
359.375	0.0003257181
360	0.0003050609
360.625	0.0002899642
361.25	0.0002781012
361.875	0.0002602605
362.5	0.0002484652
363.125	0.0002358704
363.75	0.0002263318
364.375	0.0002064235
365	0.0002051103
365.625	0.0001933429
366.25	0.0001838045
366.875	0.0001773684
367.5	0.000171878
368.125	0.0001655101
368.75	0.0001629326
369.375	0.00016416
370	0.0001691035
370.625	0.0001701969
371.25	0.0001810914
371.875	0.00018785
372.5	0.0001982824
373.125	0.000209968
373.75	0.0002235067
374.375	0.0002326706
375	0.0002406945
375.625	0.0002500147
376.25	0.000255698
376.875	0.0002651898
377.5	0.000272786
378.125	0.0002785726
378.75	0.0002891503
379.375	0.0002920738
380	0.0002984749
380.625	0.0003032754
381.25	0.0003168251
381.875	0.0003178051
382.5	0.000326491
383.125	0.0003291921
383.75	0.0003247965
384.375	0.0003245284
385	0.0003246854
385.625	0.0003192326
386.25	0.0003162655
386.875	0.0003217541
387.5	0.0003120324
388.125	0.0003041741
388.75	0.0002992476
389.375	0.000289951
390	0.0002820828
390.625	0.0002798223
391.25	0.000275188
391.875	0.0002683208
392.5	0.0002610734
393.125	0.0002459951
393.75	0.0002324744
394.375	0.0002247509
395	0.0002093728
395.625	0.0002007515
396.25	0.0001899802
396.875	0.0001749676
397.5	0.000157213
398.125	0.0001504399
398.75	0.0001359578
399.375	0.0001271832
400	0.0001220359
400.625	0.0001126615
401.25	0.0001090704
401.875	0.0001118208
402.5	0.0001126354
403.125	0.0001132026
403.75	0.0001232549
404.375	0.000127493
405	0.0001395895
405.625	0.0001531069
406.25	0.0001651109
406.875	0.0001764973
407.5	0.0001928426
408.125	0.000201088
408.75	0.0002115129
409.375	0.000226458
410	0.0002350969
410.625	0.0002442859
411.25	0.0002584429
411.875	0.0002633062
412.5	0.000279146
413.125	0.0002931986
413.75	0.0003047427
414.375	0.000310107
415	0.0003271343
415.625	0.0003298567
416.25	0.0003375094
416.875	0.0003432781
417.5	0.0003482947
418.125	0.0003550527
418.75	0.0003586735
419.375	0.000359529
420	0.0003562409
420.625	0.000361261
421.25	0.0003513228
421.875	0.0003538926
422.5	0.000356233
423.125	0.0003552371
423.75	0.0003502481
424.375	0.0003517741
425	0.000343074
425.625	0.0003359187
426.25	0.000338513
426.875	0.0003320046
427.5	0.0003210953
428.125	0.000311803
428.75	0.0002976716
429.375	0.0002841938
430	0.0002720173
430.625	0.0002586809
431.25	0.0002460404
431.875	0.000234954
432.5	0.0002209947
433.125	0.0002081059
433.75	0.0002029063
434.375	0.0001840532
435	0.0001721207
435.625	0.0001539883
436.25	0.0001417031
436.875	0.0001193718
437.5	0.0001132187
438.125	9.599318e-5
438.75	7.815743e-5
439.375	5.954204e-5
440	4.267606e-5
440.625	2.921525e-5
441.25	2.52551e-5
441.875	2.590899e-5
442.5	3.071387e-5
443.125	4.526258e-5
443.75	5.994904e-5
444.375	7.098723e-5
445	8.747477e-5
445.625	0.0001001882
446.25	0.00011245
446.875	0.0001264751
447.5	0.0001406295
448.125	0.0001495168
448.75	0.0001706415
449.375	0.0001804036
450	0.0001979094
450.625	0.0002036603
451.25	0.0002109211
451.875	0.0002120327
452.5	0.0002244557
453.125	0.0002273733
453.75	0.0002343954
454.375	0.0002450709
455	0.0002443065
455.625	0.0002467569
456.25	0.000245783
456.875	0.0002537086
457.5	0.0002515588
458.125	0.0002648416
458.75	0.0002589644
459.375	0.0002610528
460	0.0002618572
460.625	0.0002613988
461.25	0.0002520772
461.875	0.0002545778
462.5	0.000245915
463.125	0.00023615
463.75	0.0002318218
464.375	0.0002272822
465	0.0002180048
465.625	0.0002152664
466.25	0.0002039102
466.875	0.0001948788
467.5	0.0001922145
468.125	0.0001828723
468.75	0.0001812493
469.375	0.0001760995
470	0.0001716723
470.625	0.0001561738
471.25	0.0001612628
471.875	0.0001520665
472.5	0.0001519998
473.125	0.000147731
473.75	0.0001501861
474.375	0.0001494748
475	0.0001537021
475.625	0.0001579169
476.25	0.0001615067
476.875	0.0001734213
477.5	0.0001749318
478.125	0.0001884288
478.75	0.0001978835
479.375	0.0002117158
480	0.0002225012
480.625	0.0002459098
481.25	0.0002597218
481.875	0.0002706058
482.5	0.0002841955
483.125	0.0002939818
483.75	0.0003089549
484.375	0.0003195258
485	0.0003380921
485.625	0.0003467781
486.25	0.0003637979
486.875	0.0003658541
487.5	0.0003776106
488.125	0.0003880427
488.75	0.0004023302
489.375	0.0004128592
490	0.0004240089
490.625	0.0004330991
491.25	0.0004399944
491.875	0.0004545473
492.5	0.0004597477
493.125	0.0004675111
493.75	0.0004772559
494.375	0.0004828781
495	0.0004849679
495.625	0.0004911739
496.25	0.0004953922
496.875	0.0004962832
497.5	0.000495037
498.125	0.0004965491
498.75	0.0004952689
499.375	0.0005014311
500	0.0004989924
500.625	0.0005056863
501.25	0.0005033424
501.875	0.0005057868
502.5	0.000498839
503.125	0.0005000972
503.75	0.0004962757
504.375	0.0004904582
505	0.0004881962
505.625	0.0004839376
506.25	0.0004760241
506.875	0.0004660526
507.5	0.0004626068
508.125	0.0004516921
508.75	0.0004457323
509.375	0.0004407939
510	0.0004339239
510.625	0.0004248742
511.25	0.0004204951
511.875	0.0004102613
512.5	0.0004009938
513.125	0.0003944026
513.75	0.0003901875
514.375	0.0003742803
515	0.000370195
515.625	0.0003518366
516.25	0.0003434387
516.875	0.0003307581
517.5	0.0003248387
518.125	0.0003072576
518.75	0.0003025495
519.375	0.0002912336
520	0.0002817278
520.625	0.0002773623
521.25	0.0002689026
521.875	0.0002645708
522.5	0.0002527891
523.125	0.0002447595
523.75	0.0002320178
524.375	0.0002292853
525	0.0002185116
525.625	0.0002115185
526.25	0.0002030419
526.875	0.0001991793
527.5	0.0001830046
528.125	0.0001864237
528.75	0.0001798784
529.375	0.0001833316
530	0.0001754444
530.625	0.0001858891
531.25	0.0001744658
531.875	0.0001795648
532.5	0.0001747219
533.125	0.000180878
533.75	0.0001767278
534.375	0.0001785671
535	0.0001823035
535.625	0.0001793621
536.25	0.000181154
536.875	0.0001841668
537.5	0.0001905426
538.125	0.0001934973
538.75	0.0002070013
539.375	0.0002100316
540	0.0002202779
540.625	0.000218975
541.25	0.0002250286
541.875	0.0002258959
542.5	0.0002403478
543.125	0.0002341724
543.75	0.0002489472
544.375	0.0002459357
545	0.0002498168
545.625	0.0002441424
546.25	0.0002603647
546.875	0.0002582553
547.5	0.0002692599
548.125	0.0002785216
548.75	0.0002780663
549.375	0.000284283
550	0.0002879614
550.625	0.0002950403
551.25	0.0002929207
551.875	0.0003030936
552.5	0.0002932287
553.125	0.0003009644
553.75	0.0002955258
554.375	0.0002980176
555	0.0002960604
555.625	0.0003034225
556.25	0.0002950091
556.875	0.0003019861
557.5	0.0003008477
558.125	0.0003070131
558.75	0.0003018775
559.375	0.0003068824
560	0.0003000921
560.625	0.0003033134
561.25	0.0002987305
561.875	0.0002959378
562.5	0.0002924562
563.125	0.0002882924
563.75	0.0002868793
564.375	0.0002753091
565	0.0002776352
565.625	0.0002646043
566.25	0.0002681057
566.875	0.0002562199
567.5	0.000262359
568.125	0.000252727
568.75	0.0002576873
569.375	0.0002481219
570	0.0002500494
570.625	0.0002415522
571.25	0.000237442
571.875	0.000233228
572.5	0.0002274765
573.125	0.000219524
573.75	0.0002108851
574.375	0.0002112039
575	0.0002038268
575.625	0.0002042713
576.25	0.0001968525
576.875	0.0001958423
577.5	0.0001865155
578.125	0.0001929594
578.75	0.0001887946
579.375	0.000194504
580	0.0001861202
580.625	0.0001905508
581.25	0.0001826404
581.875	0.0001870233
582.5	0.0001828384
583.125	0.0001894599
583.75	0.0001884352
584.375	0.0001844116
585	0.000182165
585.625	0.0001786953
586.25	0.0001840415
586.875	0.0001739366
587.5	0.0001828178
588.125	0.0001749754
588.75	0.0001848862
589.375	0.000176978
590	0.0001894024
590.625	0.0001819075
591.25	0.0001840435
591.875	0.0001805044
592.5	0.0001828315
593.125	0.0001791403
593.75	0.0001737282
594.375	0.000177088
595	0.0001689957
595.625	0.0001695078
596.25	0.0001591328
596.875	0.0001592448
597.5	0.0001486237
598.125	0.000149562
598.75	0.0001376162
599.375	0.0001426307
600	0.0001331415
600.625	0.0001306404
601.25	0.0001203917
601.875	0.0001187725
602.5	0.0001052701
603.125	0.0001112349
603.75	9.923468e-5
604.375	9.084215e-5
605	7.758825e-5
605.625	6.998474e-5
606.25	5.465105e-5
606.875	4.955828e-5
607.5	4.9635e-5
608.125	4.683355e-5
608.75	4.703804e-5
609.375	4.776191e-5
610	4.542702e-5
610.625	5.072006e-5
611.25	5.560191e-5
611.875	6.918849e-5
612.5	7.580825e-5
613.125	8.774545e-5
613.75	9.676962e-5
614.375	0.0001015168
615	0.0001126293
615.625	0.0001263907
616.25	0.0001450979
616.875	0.0001530826
617.5	0.0001741288
618.125	0.0001796256
618.75	0.0001945443
619.375	0.0002029268
620	0.000214981
620.625	0.0002237967
621.25	0.0002407442
621.875	0.0002452945
622.5	0.0002572688
623.125	0.0002660783
623.75	0.0002783829
624.375	0.0002822864
625	0.000299788
625.625	0.000307945
626.25	0.0003247515
626.875	0.0003341502
627.5	0.0003451518
628.125	0.0003511623
628.75	0.0003604421
629.375	0.000368494
630	0.0003724912
630.625	0.0003875908
631.25	0.0003875153
631.875	0.0003947265
632.5	0.000397212
633.125	0.0004080468
633.75	0.0004054153
634.375	0.0004182468
635	0.0004220966
635.625	0.0004274552
636.25	0.0004301394
636.875	0.000442228
637.5	0.0004452633
638.125	0.0004490298
638.75	0.000449741
639.375	0.0004504073
640	0.0004472875
640.625	0.0004511604
641.25	0.0004510143
641.875	0.0004539811
642.5	0.0004504162
643.125	0.0004448375
643.75	0.000445265
644.375	0.0004431108
645	0.0004452245
645.625	0.0004432953
646.25	0.0004536118
646.875	0.000439925
647.5	0.0004419939
648.125	0.0004345104
648.75	0.0004360632
649.375	0.0004233647
650	0.0004228715
