Source File Name:	Analyzer
Signal:	FFT - Vib Velocity - Magnitude

Frequency	Magnitude
[ Hz ]	[ m/s ]
20	0.0011619
20.625	0.000997675
21.25	0.0008926995
21.875	0.0008055071
22.5	0.0007347038
23.125	0.0006782221
23.75	0.0006290138
24.375	0.0005805164
25	0.0005347647
25.625	0.0004904569
26.25	0.0004710256
26.875	0.00044125
27.5	0.0004252136
28.125	0.0004068195
28.75	0.0003965303
29.375	0.0003961465
30	0.0003957293
30.625	0.000411291
31.25	0.0004341239
31.875	0.0004629735
32.5	0.0004986615
33.125	0.0005347295
33.75	0.0005606131
34.375	0.0005760022
35	0.0005794095
35.625	0.0005638966
36.25	0.0005448745
36.875	0.0005292216
37.5	0.0005101906
38.125	0.0004994825
38.75	0.0004878286
39.375	0.0004856825
40	0.0004751733
40.625	0.00047551
41.25	0.0004689551
41.875	0.0004570648
42.5	0.0004471927
43.125	0.0004438477
43.75	0.0004377914
44.375	0.0004334044
45	0.0004286175
45.625	0.0004246751
46.25	0.0004295985
46.875	0.0004255576
47.5	0.0004215741
48.125	0.0004157922
48.75	0.0004134126
49.375	0.0004089019
50	0.0004050395
50.625	0.0003976993
51.25	0.000395858
51.875	0.0003910212
52.5	0.0003853108
53.125	0.0003807657
53.75	0.0003731472
54.375	0.0003659625
55	0.0003660487
55.625	0.0003560672
56.25	0.000358718
56.875	0.0003460114
57.5	0.0003363331
58.125	0.0003295511
58.75	0.0003283049
59.375	0.0003160401
60	0.0003190367
60.625	0.000313291
61.25	0.0003099484
61.875	0.0003015396
62.5	0.0002954145
63.125	0.0002886698
63.75	0.0002857182
64.375	0.000274996
65	0.0002719212
65.625	0.0002716454
66.25	0.0002653417
66.875	0.0002608799
67.5	0.0002523252
68.125	0.0002454956
68.75	0.0002427344
69.375	0.0002367364
70	0.0002291808
70.625	0.0002287732
71.25	0.0002260886
71.875	0.0002187276
72.5	0.0002142502
73.125	0.0002069037
73.75	0.0002061387
74.375	0.0001991488
75	0.0001941122
75.625	0.0001922758
76.25	0.0001921688
76.875	0.0001879982
77.5	0.0001824278
78.125	0.0001784053
78.75	0.0001742691
79.375	0.0001724355
80	0.000165888
80.625	0.0001648957
81.25	0.0001589656
81.875	0.0001592701
82.5	0.0001537559
83.125	0.0001519587
83.75	0.0001495365
84.375	0.0001450132
85	0.0001361961
85.625	0.0001364936
86.25	0.0001327497
86.875	0.000129727
87.5	0.0001240089
88.125	0.0001238603
88.75	0.0001192082
89.375	0.000123193
90	0.0001184092
90.625	0.0001137843
91.25	0.0001101009
91.875	0.0001020751
92.5	0.0001018688
93.125	0.0001010117
93.75	0.0001019178
94.375	9.485097e-5
95	9.407871e-5
95.625	8.826787e-5
96.25	8.751127e-5
96.875	8.393448e-5
97.5	8.022499e-5
98.125	7.391296e-5
98.75	7.470509e-5
99.375	7.050783e-5
100	6.794067e-5
100.625	6.887731e-5
101.25	6.879673e-5
101.875	6.475488e-5
102.5	6.343227e-5
103.125	6.283239e-5
103.75	5.574727e-5
104.375	5.468483e-5
105	5.168187e-5
105.625	5.142927e-5
106.25	5.214254e-5
106.875	5.479307e-5
107.5	5.168471e-5
108.125	5.17852e-5
108.75	4.852475e-5
109.375	4.782329e-5
110	4.791789e-5
110.625	4.543758e-5
111.25	4.640382e-5
111.875	4.436624e-5
112.5	4.609672e-5
113.125	5.034768e-5
113.75	5.285247e-5
114.375	5.073256e-5
115	4.766042e-5
115.625	4.975776e-5
116.25	5.048545e-5
116.875	5.590585e-5
117.5	5.321273e-5
118.125	5.315464e-5
118.75	5.960061e-5
119.375	6.231118e-5
120	6.783085e-5
120.625	6.638082e-5
121.25	6.81966e-5
121.875	6.950477e-5
122.5	7.391896e-5
123.125	7.097536e-5
123.75	7.882065e-5
124.375	8.216086e-5
125	8.489885e-5
125.625	8.887571e-5
126.25	9.360414e-5
126.875	9.72736e-5
127.5	0.0001021966
128.125	0.0001049779
128.75	0.0001046825
129.375	0.0001136107
130	0.0001158812
130.625	0.0001227873
131.25	0.0001251623
131.875	0.0001329417
132.5	0.0001336616
133.125	0.0001440511
133.75	0.0001467699
134.375	0.0001503698
135	0.0001506861
135.625	0.0001574731
136.25	0.0001653592
136.875	0.0001751305
137.5	0.0001824963
138.125	0.0001833837
138.75	0.000192584
139.375	0.0001985862
140	0.0002016889
140.625	0.0002064533
141.25	0.000216951
141.875	0.0002214941
142.5	0.0002303236
143.125	0.0002376447
143.75	0.0002479649
144.375	0.0002558351
145	0.0002625206
145.625	0.0002649684
146.25	0.00027817
146.875	0.0002885504
147.5	0.0002988376
148.125	0.0003086668
148.75	0.0003245171
149.375	0.000339465
150	0.0003565951
150.625	0.0003709395
151.25	0.0003890964
151.875	0.0004081332
152.5	0.0004284068
153.125	0.0004541498
153.75	0.0004785422
154.375	0.0005056931
155	0.0005307357
155.625	0.0005607696
156.25	0.0005934452
156.875	0.0006276203
157.5	0.000659462
158.125	0.0006962821
158.75	0.0007334656
159.375	0.0007713606
160	0.000810953
160.625	0.0008555878
161.25	0.0009026667
161.875	0.0009536241
162.5	0.0009968608
163.125	0.001045874
163.75	0.001099672
164.375	0.001151536
165	0.001198153
165.625	0.001242178
166.25	0.001275162
166.875	0.001303204
167.5	0.00131866
168.125	0.001310792
168.75	0.001288387
169.375	0.001249245
170	0.001199179
170.625	0.001139603
171.25	0.00107975
171.875	0.001017558
172.5	0.0009613029
173.125	0.0009036657
173.75	0.000856385
174.375	0.0008115277
175	0.0007743416
175.625	0.0007339633
176.25	0.0007100588
176.875	0.0006781075
177.5	0.0006601958
178.125	0.0006368254
178.75	0.0006201551
179.375	0.0006007029
180	0.0005889891
180.625	0.0005751614
181.25	0.0005672694
181.875	0.0005615015
182.5	0.0005498829
183.125	0.0005458425
183.75	0.0005398855
184.375	0.0005374482
185	0.0005284192
185.625	0.0005207177
186.25	0.0005097413
186.875	0.0005040249
187.5	0.0004952761
188.125	0.0004903612
188.75	0.0004831144
189.375	0.0004749542
190	0.0004674859
190.625	0.000463159
191.25	0.0004595453
191.875	0.0004565509
192.5	0.0004468238
193.125	0.0004388857
193.75	0.0004341999
194.375	0.0004334661
195	0.0004305192
195.625	0.0004265262
196.25	0.000420198
196.875	0.0004184162
197.5	0.0004154111
198.125	0.0004115479
198.75	0.0004095075
199.375	0.0004040607
200	0.0003987358
200.625	0.000394934
201.25	0.0003906218
201.875	0.0003867404
202.5	0.0003839278
203.125	0.000377276
203.75	0.0003780002
204.375	0.0003763521
205	0.0003755191
205.625	0.0003702688
206.25	0.0003699189
206.875	0.0003702955
207.5	0.0003758597
208.125	0.0003793247
208.75	0.0003815281
209.375	0.0003871769
210	0.0003873544
210.625	0.0003927432
211.25	0.0003941302
211.875	0.0004013298
212.5	0.0004032078
213.125	0.0004084171
213.75	0.0004105356
214.375	0.0004201524
215	0.0004230051
215.625	0.0004295537
216.25	0.000429467
216.875	0.0004345535
217.5	0.0004403103
218.125	0.0004451738
218.75	0.0004493095
219.375	0.000454132
220	0.0004614263
220.625	0.00046371
221.25	0.0004716655
221.875	0.0004693138
222.5	0.0004755604
223.125	0.000474324
223.75	0.0004771245
224.375	0.0004763086
225	0.0004808972
225.625	0.0004764776
226.25	0.0004771895
226.875	0.0004694709
227.5	0.0004620234
228.125	0.000451721
228.75	0.000438517
229.375	0.0004226283
230	0.0004054111
230.625	0.0003858137
231.25	0.0003694549
231.875	0.0003537356
232.5	0.0003297695
233.125	0.0003086426
233.75	0.0002872424
234.375	0.000269064
235	0.000252772
235.625	0.0002349676
236.25	0.0002184723
236.875	0.000208456
237.5	0.0001982787
238.125	0.000188859
238.75	0.0001781253
239.375	0.0001714021
240	0.0001644488
240.625	0.000157405
241.25	0.0001493239
241.875	0.0001466026
242.5	0.0001413252
243.125	0.0001393307
243.75	0.0001378528
244.375	0.0001368844
245	0.0001383043
245.625	0.0001348734
246.25	0.0001312767
246.875	0.00012829
247.5	0.0001307623
248.125	0.0001317506
248.75	0.0001346322
249.375	0.0001351094
250	0.0001383619
250.625	0.0001384385
251.25	0.0001428281
251.875	0.0001454434
252.5	0.0001437324
253.125	0.0001460844
253.75	0.0001520717
254.375	0.0001575708
255	0.0001597282
255.625	0.0001615671
256.25	0.0001641076
256.875	0.0001743974
257.5	0.000175495
258.125	0.0001774328
258.75	0.0001769687
259.375	0.000182638
260	0.0001831069
260.625	0.0001868078
261.25	0.0001854417
261.875	0.0001895114
262.5	0.00018954
263.125	0.0001864271
263.75	0.0001905475
264.375	0.0001902153
265	0.000193368
265.625	0.0001855716
266.25	0.0001874924
266.875	0.0001812849
267.5	0.0001847768
268.125	0.0001775995
268.75	0.0001777378
269.375	0.0001730587
270	0.0001713035
270.625	0.0001672147
271.25	0.000164522
271.875	0.0001632664
272.5	0.0001592266
273.125	0.0001592355
273.75	0.0001561158
274.375	0.0001551193
275	0.000148201
275.625	0.0001491076
276.25	0.0001489654
276.875	0.000152637
277.5	0.0001503822
278.125	0.0001528907
278.75	0.0001544602
279.375	0.000153938
280	0.0001525135
280.625	0.0001557191
281.25	0.0001581854
281.875	0.0001608825
282.5	0.000159409
283.125	0.0001602506
283.75	0.0001679012
284.375	0.0001720263
285	0.000169749
285.625	0.0001705523
286.25	0.000171446
286.875	0.0001704926
287.5	0.0001726867
288.125	0.0001697561
288.75	0.000171499
289.375	0.0001753885
290	0.0001773368
290.625	0.0001773489
291.25	0.0001780743
291.875	0.0001751374
292.5	0.0001799795
293.125	0.0001845966
293.75	0.0001853878
294.375	0.0001865417
295	0.0001888301
295.625	0.0001927661
296.25	0.0001981973
296.875	0.0002002448
297.5	0.0002012893
298.125	0.0002080903
298.75	0.0002082997
299.375	0.0002116142
300	0.0002138451
300.625	0.000221131
301.25	0.0002221416
301.875	0.0002252246
302.5	0.0002271889
303.125	0.0002325128
303.75	0.0002371855
304.375	0.0002410899
305	0.0002434463
305.625	0.0002464133
306.25	0.0002531414
306.875	0.0002534917
307.5	0.0002595393
308.125	0.0002598488
308.75	0.000264886
309.375	0.0002671705
310	0.000275881
310.625	0.0002724745
311.25	0.0002781691
311.875	0.0002776064
312.5	0.0002821177
313.125	0.0002863607
313.75	0.0002854138
314.375	0.0002881242
315	0.0002915618
315.625	0.0002955424
316.25	0.0002942589
316.875	0.0003005979
317.5	0.000299456
318.125	0.0003039245
318.75	0.0003024637
319.375	0.0003034864
320	0.0003077044
320.625	0.0003115139
321.25	0.0003098186
321.875	0.000312593
322.5	0.0003143479
323.125	0.0003181524
323.75	0.0003199023
324.375	0.0003192519
325	0.0003186915
325.625	0.0003231653
326.25	0.0003240485
326.875	0.0003244655
327.5	0.0003260144
328.125	0.0003280267
328.75	0.0003293377
329.375	0.000330899
330	0.0003347656
330.625	0.0003326621
331.25	0.0003365513
331.875	0.0003356622
332.5	0.000338975
333.125	0.0003419763
333.75	0.0003443004
334.375	0.0003421194
335	0.0003484505
335.625	0.0003528563
336.25	0.000353505
336.875	0.0003575852
337.5	0.0003578027
338.125	0.000364625
338.75	0.0003686584
339.375	0.0003696681
340	0.0003708334
340.625	0.0003774816
341.25	0.0003771028
341.875	0.0003841638
342.5	0.0003875378
343.125	0.0003923818
343.75	0.000395445
344.375	0.0003951989
345	0.0003955824
345.625	0.0004033656
346.25	0.0004047768
346.875	0.0004048782
347.5	0.0004113102
348.125	0.0004111348
348.75	0.0004166228
349.375	0.0004153056
350	0.0004170745
350.625	0.0004179638
351.25	0.0004227183
351.875	0.0004185877
352.5	0.0004232111
353.125	0.0004230185
353.75	0.0004227053
354.375	0.0004222724
355	0.0004238041
355.625	0.0004253158
356.25	0.0004245431
356.875	0.0004217349
357.5	0.0004184186
358.125	0.0004207362
358.75	0.0004178009
359.375	0.0004174216
360	0.0004121707
360.625	0.0004144177
361.25	0.0004094078
361.875	0.0004094128
362.5	0.0004067355
363.125	0.0004054579
363.75	0.0004004896
364.375	0.0003960562
365	0.0003921322
365.625	0.0003916408
366.25	0.0003911706
366.875	0.0003875613
367.5	0.0003867655
368.125	0.0003835478
368.75	0.0003797488
369.375	0.0003770434
370	0.0003738734
370.625	0.0003702223
371.25	0.0003714239
371.875	0.0003686387
372.5	0.0003704213
373.125	0.0003660304
373.75	0.0003633323
374.375	0.0003605803
375	0.000362939
375.625	0.0003587474
376.25	0.000356023
376.875	0.000353831
377.5	0.0003531878
378.125	0.000354785
378.75	0.0003513435
379.375	0.0003515762
380	0.0003486774
380.625	0.0003480334
381.25	0.0003432096
381.875	0.0003434066
382.5	0.0003420278
383.125	0.0003423872
383.75	0.000339875
384.375	0.0003392164
385	0.000335903
385.625	0.0003329432
386.25	0.0003304988
386.875	0.000328187
387.5	0.0003264553
388.125	0.0003241758
388.75	0.000321936
389.375	0.0003198429
390	0.0003162427
390.625	0.0003098324
391.25	0.000310784
391.875	0.0003060131
392.5	0.000302026
393.125	0.0002940482
393.75	0.0002917536
394.375	0.0002900092
395	0.000289386
395.625	0.0002796876
396.25	0.0002757132
396.875	0.0002728257
397.5	0.0002656403
398.125	0.0002617823
398.75	0.0002547409
399.375	0.0002522513
400	0.0002464925
400.625	0.0002436834
401.25	0.0002378927
401.875	0.0002374577
402.5	0.0002289342
403.125	0.0002249965
403.75	0.0002195019
404.375	0.0002155547
405	0.0002113425
405.625	0.0002067734
406.25	0.0002056539
406.875	0.0002061927
407.5	0.0002041675
408.125	0.0002013949
408.75	0.0002000721
409.375	0.0001915954
410	0.0001893435
410.625	0.0001881799
411.25	0.0001903141
411.875	0.000188337
412.5	0.0001887493
413.125	0.0001876738
413.75	0.0001917898
414.375	0.0001881304
415	0.0001829819
415.625	0.0001810707
416.25	0.0001833439
416.875	0.0001834829
417.5	0.0001818749
418.125	0.0001842788
418.75	0.0001847562
419.375	0.0001845455
420	0.000181855
420.625	0.0001815489
421.25	0.0001810005
421.875	0.0001819288
422.5	0.0001759549
423.125	0.0001778508
423.75	0.000180738
424.375	0.000182795
425	0.000181739
425.625	0.0001798341
426.25	0.0001775561
426.875	0.0001781448
427.5	0.0001756976
428.125	0.0001708438
428.75	0.0001723653
429.375	0.0001725672
430	0.0001777057
430.625	0.000176016
431.25	0.0001741089
431.875	0.0001701689
432.5	0.0001713368
433.125	0.0001672558
433.75	0.0001674383
434.375	0.0001653894
435	0.0001648303
435.625	0.0001660287
436.25	0.0001644239
436.875	0.0001664933
437.5	0.0001637113
438.125	0.0001644703
438.75	0.0001600763
439.375	0.0001598536
440	0.0001558279
440.625	0.0001574324
441.25	0.0001544342
441.875	0.0001563216
442.5	0.0001548519
443.125	0.0001539428
443.75	0.0001530749
444.375	0.0001492908
445	0.0001451371
445.625	0.0001427217
446.25	0.0001433699
446.875	0.0001412533
447.5	0.0001398358
448.125	0.000133481
448.75	0.0001343375
449.375	0.0001309975
450	0.0001299185
450.625	0.0001239211
451.25	0.0001202267
451.875	0.0001144854
452.5	0.0001125757
453.125	0.0001080297
453.75	0.0001061611
454.375	0.0001015929
455	9.61945e-5
455.625	9.247861e-5
456.25	8.643689e-5
456.875	8.135146e-5
457.5	7.654365e-5
458.125	7.027377e-5
458.75	6.59431e-5
459.375	6.380593e-5
460	5.574132e-5
460.625	5.209683e-5
461.25	4.289805e-5
461.875	3.818956e-5
462.5	3.571493e-5
463.125	3.376771e-5
463.75	2.354161e-5
464.375	2.176156e-5
465	1.979432e-5
465.625	2.202793e-5
466.25	1.993188e-5
466.875	1.873787e-5
467.5	2.46085e-5
468.125	3.037561e-5
468.75	3.536317e-5
469.375	3.886052e-5
470	4.273108e-5
470.625	4.732015e-5
471.25	5.158311e-5
471.875	5.72592e-5
472.5	6.062875e-5
473.125	6.339437e-5
473.75	6.76407e-5
474.375	7.499174e-5
475	7.946453e-5
475.625	8.529529e-5
476.25	8.611379e-5
476.875	9.152968e-5
477.5	9.227417e-5
478.125	9.493063e-5
478.75	9.906507e-5
479.375	0.0001019884
480	0.0001050894
480.625	0.0001099465
481.25	0.000115689
481.875	0.0001172552
482.5	0.0001218703
483.125	0.0001172384
483.75	0.000124379
484.375	0.0001255795
485	0.0001268678
485.625	0.0001270896
486.25	0.0001328184
486.875	0.0001360795
487.5	0.0001425275
488.125	0.0001449066
488.75	0.0001453772
489.375	0.0001477524
490	0.0001436603
490.625	0.0001473622
491.25	0.0001516646
491.875	0.0001567153
492.5	0.0001578135
493.125	0.0001634615
493.75	0.0001653309
494.375	0.0001711745
495	0.0001680874
495.625	0.0001682258
496.25	0.0001706069
496.875	0.0001736993
497.5	0.0001759949
498.125	0.0001784231
498.75	0.0001831373
499.375	0.0001849073
500	0.0001882699
500.625	0.0001880608
501.25	0.0001904977
501.875	0.0001869475
502.5	0.0001879109
503.125	0.0001877112
503.75	0.0001926468
504.375	0.0001943963
505	0.0001946802
505.625	0.0001945075
506.25	0.0001973408
506.875	0.0001933496
507.5	0.0001926933
508.125	0.0001909306
508.75	0.0001885567
509.375	0.0001871798
510	0.0001855693
510.625	0.0001868094
511.25	0.0001884597
511.875	0.0001841793
512.5	0.0001772427
513.125	0.0001779002
513.75	0.0001736797
514.375	0.0001708075
515	0.0001653212
515.625	0.0001615026
516.25	0.0001617894
516.875	0.0001613272
517.5	0.0001539559
518.125	0.0001530977
518.75	0.0001461946
519.375	0.0001409864
520	0.0001370745
520.625	0.0001343517
521.25	0.0001318249
521.875	0.0001290847
522.5	0.0001237133
523.125	0.0001200204
523.75	0.0001207784
524.375	0.0001115007
525	0.0001101756
525.625	0.0001024483
526.25	0.0001046043
526.875	0.0001021703
527.5	0.0001019845
528.125	9.668073e-5
528.75	9.482123e-5
529.375	9.35621e-5
530	9.260641e-5
530.625	9.209246e-5
531.25	8.562767e-5
531.875	8.858691e-5
532.5	8.610165e-5
533.125	9.205753e-5
533.75	8.811467e-5
534.375	8.91804e-5
535	8.714112e-5
535.625	8.720759e-5
536.25	8.557335e-5
536.875	8.49749e-5
537.5	8.51295e-5
538.125	8.596363e-5
538.75	8.963476e-5
539.375	8.756934e-5
540	9.115816e-5
540.625	8.683686e-5
541.25	8.689232e-5
541.875	8.60064e-5
542.5	8.600296e-5
543.125	8.514624e-5
543.75	8.881504e-5
544.375	8.578828e-5
545	8.711749e-5
545.625	8.726931e-5
546.25	8.854829e-5
546.875	8.971348e-5
547.5	8.602066e-5
548.125	8.284153e-5
548.75	8.33805e-5
549.375	8.708661e-5
550	8.640382e-5
550.625	8.942201e-5
551.25	8.745726e-5
551.875	9.278418e-5
552.5	9.036637e-5
553.125	8.862859e-5
553.75	8.607728e-5
554.375	8.954388e-5
555	9.372131e-5
555.625	9.553463e-5
556.25	9.746486e-5
556.875	9.675014e-5
557.5	0.0001002354
558.125	0.0001001756
558.75	0.0001019464
559.375	0.0001017944
560	0.0001059077
560.625	0.0001036059
561.25	0.0001041376
561.875	0.0001073917
562.5	0.0001127767
563.125	0.0001143883
563.75	0.0001147255
564.375	0.0001111283
565	0.0001153849
565.625	0.0001157311
566.25	0.0001122854
566.875	0.0001124248
567.5	0.0001152696
568.125	0.0001179588
568.75	0.0001180971
569.375	0.0001167156
570	0.000113695
570.625	0.0001174074
571.25	0.0001112533
571.875	0.0001123271
572.5	0.0001083331
573.125	0.0001071104
573.75	0.0001047621
574.375	0.0001078249
575	0.0001061412
575.625	0.0001073749
576.25	0.0001016581
576.875	9.555966e-5
577.5	9.466907e-5
578.125	8.899276e-5
578.75	8.803762e-5
579.375	8.700727e-5
580	8.595849e-5
580.625	7.923158e-5
581.25	7.89984e-5
581.875	7.447686e-5
582.5	7.631518e-5
583.125	6.813428e-5
583.75	6.213264e-5
584.375	5.922256e-5
585	5.899341e-5
585.625	5.485697e-5
586.25	4.984472e-5
586.875	4.794414e-5
587.5	4.668433e-5
588.125	4.59526e-5
588.75	3.822313e-5
589.375	3.552405e-5
590	3.007388e-5
590.625	3.137084e-5
591.25	2.919366e-5
591.875	2.915423e-5
592.5	2.495094e-5
593.125	2.269113e-5
593.75	2.209239e-5
594.375	2.129529e-5
595	1.807168e-5
595.625	1.848846e-5
596.25	2.275591e-5
596.875	2.268678e-5
597.5	2.506332e-5
598.125	2.297467e-5
598.75	2.689931e-5
599.375	2.501827e-5
600	2.550646e-5
600.625	3.045673e-5
601.25	3.318329e-5
601.875	3.289537e-5
602.5	3.568766e-5
603.125	3.901701e-5
603.75	4.15297e-5
604.375	4.257122e-5
605	3.892892e-5
605.625	4.47102e-5
606.25	4.720737e-5
606.875	5.058361e-5
607.5	5.22276e-5
608.125	5.836171e-5
608.75	5.811289e-5
609.375	6.238983e-5
610	6.14309e-5
610.625	6.455556e-5
611.25	6.667612e-5
611.875	6.801182e-5
612.5	7.449215e-5
613.125	7.852097e-5
613.75	8.517162e-5
614.375	8.315407e-5
615	8.855248e-5
615.625	8.758304e-5
616.25	9.288861e-5
616.875	9.099035e-5
617.5	9.698827e-5
618.125	9.79624e-5
618.75	0.0001043269
619.375	0.0001091235
620	0.0001117724
620.625	0.0001158915
621.25	0.0001141149
621.875	0.0001161539
622.5	0.0001179338
623.125	0.0001228538
623.75	0.000121152
624.375	0.0001267493
625	0.0001261747
625.625	0.0001328227
626.25	0.0001362207
626.875	0.0001364552
627.5	0.0001355427
628.125	0.0001362384
628.75	0.0001334616
629.375	0.0001362179
630	0.0001388002
630.625	0.0001383036
631.25	0.0001426158
631.875	0.0001432867
632.5	0.0001437074
633.125	0.0001442101
633.75	0.0001420746
634.375	0.0001385754
635	0.0001389755
635.625	0.0001370973
636.25	0.0001380437
636.875	0.0001393973
637.5	0.0001395328
638.125	0.0001393071
638.75	0.0001406862
639.375	0.0001369548
640	0.0001353445
640.625	0.0001294882
641.25	0.0001275786
641.875	0.000126696
642.5	0.0001286986
643.125	0.0001293127
643.75	0.0001280546
644.375	0.000126788
645	0.0001215858
645.625	0.0001217698
646.25	0.0001198004
646.875	0.0001202145
647.5	0.0001139149
648.125	0.0001146805
648.75	0.000111623
649.375	0.0001147278
650	0.0001147229
650.625	0.000112285
651.25	0.0001099156
651.875	0.000111464
652.5	0.000106914
653.125	0.0001047203
653.75	0.0001039326
654.375	0.000102335
655	0.0001058632
655.625	0.0001047342
