Source File Name:	Analyzer
Signal:	FFT - Vib Velocity - Magnitude

Frequency	Magnitude
[ Hz ]	[ m/s ]
20	0.001280711
20.625	0.001073223
21.25	0.0009525765
21.875	0.0008433062
22.5	0.0007665764
23.125	0.0006838577
23.75	0.0006310201
24.375	0.0005710754
25	0.0005335815
25.625	0.0004949741
26.25	0.0004575961
26.875	0.0004222627
27.5	0.0004072159
28.125	0.000391219
28.75	0.0003801933
29.375	0.0003781352
30	0.0003867015
30.625	0.0003941045
31.25	0.0004086386
31.875	0.0004302863
32.5	0.00045234
33.125	0.0004732983
33.75	0.0004846004
34.375	0.0004960118
35	0.0004827931
35.625	0.0004600655
36.25	0.0004291647
36.875	0.000396552
37.5	0.00036259
38.125	0.0003415784
38.75	0.0003318786
39.375	0.0003195602
40	0.0003060804
40.625	0.0002954903
41.25	0.000288683
41.875	0.0002688298
42.5	0.0002615388
43.125	0.000255942
43.75	0.0002484838
44.375	0.0002416372
45	0.0002337981
45.625	0.0002291994
46.25	0.0002121956
46.875	0.0002091068
47.5	0.0002039477
48.125	0.0002032219
48.75	0.0001942386
49.375	0.0001974268
50	0.0001926634
50.625	0.0001858412
51.25	0.0001789693
51.875	0.000171337
52.5	0.0001689551
53.125	0.0001636701
53.75	0.0001709627
54.375	0.0001613622
55	0.0001608046
55.625	0.0001528708
56.25	0.0001488621
56.875	0.0001315683
57.5	0.0001313421
58.125	0.0001335448
58.75	0.0001334457
59.375	0.0001239882
60	0.0001188779
60.625	0.0001236965
61.25	0.0001110478
61.875	0.0001109852
62.5	0.0001104167
63.125	0.0001093863
63.75	0.0001063747
64.375	0.0001090462
65	0.000109135
65.625	9.92382e-5
66.25	9.860149e-5
66.875	9.666655e-5
67.5	9.589654e-5
68.125	9.189688e-5
68.75	9.843774e-5
69.375	9.459375e-5
70	9.0466e-5
70.625	8.781654e-5
71.25	8.592e-5
71.875	8.141372e-5
72.5	7.703624e-5
73.125	8.346487e-5
73.75	8.020213e-5
74.375	7.955877e-5
75	7.768753e-5
75.625	7.911286e-5
76.25	7.365888e-5
76.875	7.330069e-5
77.5	7.831724e-5
78.125	7.961121e-5
78.75	8.214873e-5
79.375	8.308081e-5
80	8.707828e-5
80.625	8.088251e-5
81.25	8.095329e-5
81.875	8.275281e-5
82.5	8.370521e-5
83.125	8.242279e-5
83.75	8.446192e-5
84.375	8.750711e-5
85	8.250673e-5
85.625	8.059008e-5
86.25	7.808562e-5
86.875	7.931776e-5
87.5	7.50312e-5
88.125	8.274925e-5
88.75	8.479721e-5
89.375	8.391801e-5
90	8.411472e-5
90.625	8.750815e-5
91.25	8.699062e-5
91.875	8.279881e-5
92.5	9.047132e-5
93.125	9.32175e-5
93.75	9.662395e-5
94.375	9.727255e-5
95	0.0001025031
95.625	9.841341e-5
96.25	9.649917e-5
96.875	9.983746e-5
97.5	0.0001003238
98.125	0.0001014927
98.75	0.0001006508
99.375	0.0001062917
100	0.0001002762
100.625	9.892874e-5
101.25	9.883239e-5
101.875	0.0001012381
102.5	9.971194e-5
103.125	0.000105074
103.75	0.0001115215
104.375	0.0001097834
105	0.0001108662
105.625	0.0001109825
106.25	0.0001137451
106.875	0.0001109852
107.5	0.0001190189
108.125	0.0001224474
108.75	0.0001240188
109.375	0.000123286
110	0.0001266299
110.625	0.0001233878
111.25	0.0001185772
111.875	0.0001226225
112.5	0.000124357
113.125	0.0001249292
113.75	0.0001251666
114.375	0.0001310468
115	0.0001262138
115.625	0.0001245638
116.25	0.0001264132
116.875	0.0001289412
117.5	0.0001300997
118.125	0.0001340022
118.75	0.0001413036
119.375	0.0001378891
120	0.0001391337
120.625	0.0001394335
121.25	0.0001419396
121.875	0.0001388502
122.5	0.0001457775
123.125	0.000149771
123.75	0.000148186
124.375	0.000146295
125	0.000147062
125.625	0.0001464031
126.25	0.0001403366
126.875	0.0001462327
127.5	0.0001481073
128.125	0.0001504945
128.75	0.0001507546
129.375	0.0001553036
130	0.0001529423
130.625	0.0001504222
131.25	0.0001559832
131.875	0.0001591035
132.5	0.0001627926
133.125	0.0001664831
133.75	0.0001746347
134.375	0.000171732
135	0.0001726922
135.625	0.0001742602
136.25	0.0001779043
136.875	0.0001781594
137.5	0.0001821459
138.125	0.0001899678
138.75	0.0001896552
139.375	0.0001908621
140	0.000191271
140.625	0.0001944138
141.25	0.0001910442
141.875	0.0001996458
142.5	0.0002051944
143.125	0.000210405
143.75	0.000213421
144.375	0.0002201428
145	0.0002241095
145.625	0.0002244339
146.25	0.0002348269
146.875	0.0002428499
147.5	0.000252399
148.125	0.000259636
148.75	0.0002733182
149.375	0.0002804653
150	0.0002868871
150.625	0.0002994266
151.25	0.0003127467
151.875	0.0003277728
152.5	0.0003432381
153.125	0.0003660053
153.75	0.0003794996
154.375	0.0003973535
155	0.0004157746
155.625	0.0004398561
156.25	0.0004608253
156.875	0.000489185
157.5	0.0005231911
158.125	0.0005550535
158.75	0.0005893341
159.375	0.0006236504
160	0.0006643307
160.625	0.0006995314
161.25	0.0007442297
161.875	0.0007925029
162.5	0.0008421302
163.125	0.0008901406
163.75	0.0009388044
164.375	0.0009889657
165	0.001025823
165.625	0.001061255
166.25	0.0010876
166.875	0.001106735
167.5	0.001107171
168.125	0.001097956
168.75	0.001077994
169.375	0.001038652
170	0.0009903011
170.625	0.0009350179
171.25	0.0008833147
171.875	0.0008242943
172.5	0.0007734809
173.125	0.0007313955
173.75	0.0006904359
174.375	0.0006534202
175	0.0006198109
175.625	0.0005945633
176.25	0.000561473
176.875	0.0005395063
177.5	0.0005206956
178.125	0.0005073837
178.75	0.0004918677
179.375	0.000483709
180	0.0004760994
180.625	0.0004619682
181.25	0.0004533296
181.875	0.0004451107
182.5	0.0004396397
183.125	0.0004300655
183.75	0.0004298131
184.375	0.0004249773
185	0.0004165902
185.625	0.0004078377
186.25	0.0004009551
186.875	0.000391823
187.5	0.0003801881
188.125	0.0003791401
188.75	0.0003739616
189.375	0.0003695877
190	0.0003623404
190.625	0.0003615571
191.25	0.0003519935
191.875	0.0003458656
192.5	0.0003444879
193.125	0.0003436262
193.75	0.0003414093
194.375	0.0003405407
195	0.0003428747
195.625	0.0003351287
196.25	0.00033134
196.875	0.0003278412
197.5	0.0003279193
198.125	0.0003239992
198.75	0.0003269086
199.375	0.000329129
200	0.0003259319
200.625	0.0003253324
201.25	0.0003247739
201.875	0.0003265992
202.5	0.00032391
203.125	0.0003325393
203.75	0.0003374199
204.375	0.0003415201
205	0.0003429998
205.625	0.0003465675
206.25	0.0003464649
206.875	0.0003440476
207.5	0.0003486873
208.125	0.0003496843
208.75	0.0003521546
209.375	0.0003500218
210	0.0003530407
210.625	0.0003467833
211.25	0.0003436784
211.875	0.0003416668
212.5	0.000342021
213.125	0.0003409372
213.75	0.0003425772
214.375	0.0003468079
215	0.0003446212
215.625	0.0003437835
216.25	0.0003426028
216.875	0.0003460653
217.5	0.0003451676
218.125	0.000351309
218.75	0.0003567361
219.375	0.0003591243
220	0.0003605728
220.625	0.000361704
221.25	0.0003637467
221.875	0.0003591275
222.5	0.0003636108
223.125	0.0003643745
223.75	0.000366845
224.375	0.0003627408
225	0.0003636096
225.625	0.000357606
226.25	0.0003495233
226.875	0.0003444249
227.5	0.0003394357
228.125	0.000333729
228.75	0.0003244231
229.375	0.0003208086
230	0.0003077769
230.625	0.0002950787
231.25	0.0002823002
231.875	0.0002733726
232.5	0.0002621381
233.125	0.0002543689
233.75	0.0002519546
234.375	0.0002429622
235	0.0002354257
235.625	0.0002264779
236.25	0.0002220798
236.875	0.0002107196
237.5	0.0002087251
238.125	0.000205768
238.75	0.0002017469
239.375	0.0001945797
240	0.0001910396
240.625	0.0001847892
241.25	0.0001763626
241.875	0.000177183
242.5	0.0001770141
243.125	0.0001776612
243.75	0.0001749811
244.375	0.0001784287
245	0.0001719073
245.625	0.0001705311
246.25	0.0001700646
246.875	0.0001730211
247.5	0.0001710682
248.125	0.0001742126
248.75	0.0001757663
249.375	0.00017034
250	0.0001680285
250.625	0.0001665307
251.25	0.0001677165
251.875	0.0001655163
252.5	0.0001715741
253.125	0.0001722671
253.75	0.0001713886
254.375	0.0001710667
255	0.0001734084
255.625	0.0001735772
256.25	0.0001750354
256.875	0.0001831811
257.5	0.0001849121
258.125	0.0001875138
258.75	0.0001865435
259.375	0.0001885308
260	0.0001829331
260.625	0.0001836899
261.25	0.0001844503
261.875	0.0001849763
262.5	0.0001829732
263.125	0.0001815983
263.75	0.0001790749
264.375	0.0001703089
265	0.0001666553
265.625	0.0001611308
266.25	0.0001600689
266.875	0.000154583
267.5	0.0001560187
268.125	0.000150718
268.75	0.0001449298
269.375	0.0001381293
270	0.0001330215
270.625	0.0001275997
271.25	0.0001221865
271.875	0.000121289
272.5	0.0001153075
273.125	0.0001098848
273.75	0.0001005064
274.375	9.393333e-5
275	8.362258e-5
275.625	7.655707e-5
276.25	7.281523e-5
276.875	6.800235e-5
277.5	6.411986e-5
278.125	5.774276e-5
278.75	5.4728e-5
279.375	4.722365e-5
280	4.961003e-5
280.625	5.146379e-5
281.25	5.637944e-5
281.875	5.62245e-5
282.5	6.135576e-5
283.125	5.849398e-5
283.75	5.822171e-5
284.375	5.901865e-5
285	6.241301e-5
285.625	6.354663e-5
286.25	6.541148e-5
286.875	6.86283e-5
287.5	6.424539e-5
288.125	6.355899e-5
288.75	6.218454e-5
289.375	6.588558e-5
290	6.407106e-5
290.625	7.154045e-5
291.25	7.261416e-5
291.875	7.379224e-5
292.5	7.194332e-5
293.125	7.455198e-5
293.75	7.46957e-5
294.375	7.524647e-5
295	8.105464e-5
295.625	8.302755e-5
296.25	8.391197e-5
296.875	8.139745e-5
297.5	8.294616e-5
298.125	7.852671e-5
298.75	7.733183e-5
299.375	8.030196e-5
300	8.197968e-5
300.625	8.239602e-5
301.25	8.233012e-5
301.875	8.565284e-5
302.5	7.992392e-5
303.125	8.181703e-5
303.75	8.29892e-5
304.375	8.849797e-5
305	8.930692e-5
305.625	9.602362e-5
306.25	9.907477e-5
306.875	9.789629e-5
307.5	9.878692e-5
308.125	0.0001007123
308.75	0.0001034328
309.375	0.0001026931
310	0.0001106035
310.625	0.0001116603
311.25	0.000112978
311.875	0.0001117084
312.5	0.0001130101
313.125	0.0001105812
313.75	0.0001096018
314.375	0.0001146335
315	0.0001173817
315.625	0.0001204806
316.25	0.0001213104
316.875	0.0001259094
317.5	0.0001233487
318.125	0.0001261114
318.75	0.0001301513
319.375	0.0001357013
320	0.0001406002
320.625	0.0001468859
321.25	0.0001538468
321.875	0.0001527771
322.5	0.0001570948
323.125	0.0001582441
323.75	0.0001639882
324.375	0.0001655679
325	0.0001747233
325.625	0.0001783213
326.25	0.0001806415
326.875	0.000181562
327.5	0.0001833196
328.125	0.000184721
328.75	0.0001864257
329.375	0.0001941803
330	0.0001988564
330.625	0.0002042438
331.25	0.0002063009
331.875	0.0002099497
332.5	0.0002101147
333.125	0.0002124978
333.75	0.0002188865
334.375	0.000224224
335	0.0002302481
335.625	0.0002332581
336.25	0.0002381261
336.875	0.0002354106
337.5	0.0002380484
338.125	0.0002383298
338.75	0.0002437534
339.375	0.0002457517
340	0.0002515302
340.625	0.0002546233
341.25	0.0002539475
341.875	0.0002551214
342.5	0.0002557644
343.125	0.0002612282
343.75	0.0002632269
344.375	0.0002728229
345	0.0002761827
345.625	0.000281177
346.25	0.0002811695
346.875	0.0002856051
347.5	0.0002865031
348.125	0.0002901247
348.75	0.0002964965
349.375	0.0003009085
350	0.0003042108
350.625	0.0003039042
351.25	0.0003059083
351.875	0.0003028085
352.5	0.0003036364
353.125	0.0003062267
353.75	0.0003102688
354.375	0.0003120031
355	0.0003140843
355.625	0.0003166757
356.25	0.0003135788
356.875	0.0003157925
357.5	0.0003173465
358.125	0.0003234569
358.75	0.0003242274
359.375	0.0003322573
360	0.0003328133
360.625	0.0003332542
361.25	0.0003324297
361.875	0.0003346811
362.5	0.0003351681
363.125	0.0003360812
363.75	0.000341171
364.375	0.0003407745
365	0.0003404306
365.625	0.000337384
366.25	0.000338868
366.875	0.0003342002
367.5	0.000337946
368.125	0.0003404039
368.75	0.0003441451
369.375	0.0003440272
370	0.0003465316
370.625	0.0003466183
371.25	0.0003444175
371.875	0.0003477179
372.5	0.0003505806
373.125	0.0003542383
373.75	0.0003548222
374.375	0.0003589268
375	0.0003561508
375.625	0.0003537542
376.25	0.0003533046
376.875	0.0003536388
377.5	0.0003541524
378.125	0.0003552686
378.75	0.0003592735
379.375	0.0003548547
380	0.0003552423
380.625	0.0003529828
381.25	0.0003559146
381.875	0.0003545757
382.5	0.0003613206
383.125	0.00036401
383.75	0.000365524
384.375	0.0003656732
385	0.0003659569
385.625	0.0003655319
386.25	0.0003645946
386.875	0.0003701501
387.5	0.0003707123
388.125	0.0003734445
388.75	0.000371356
389.375	0.0003719727
390	0.0003668448
390.625	0.0003668179
391.25	0.0003677441
391.875	0.0003698354
392.5	0.0003714529
393.125	0.0003733672
393.75	0.0003742907
394.375	0.0003712761
395	0.0003725622
395.625	0.0003721093
396.25	0.0003762693
396.875	0.0003771929
397.5	0.0003815383
398.125	0.0003809593
398.75	0.0003789906
399.375	0.0003769081
400	0.0003748028
400.625	0.000374865
401.25	0.0003737401
401.875	0.0003765935
402.5	0.0003744987
403.125	0.0003741979
403.75	0.0003690605
404.375	0.0003688154
405	0.0003650465
405.625	0.0003669232
406.25	0.0003688557
406.875	0.0003712445
407.5	0.0003717649
408.125	0.0003702616
408.75	0.0003705401
409.375	0.000366206
410	0.0003676086
410.625	0.0003668488
411.25	0.0003701828
411.875	0.0003678016
412.5	0.000368899
413.125	0.0003645234
413.75	0.0003602884
414.375	0.0003564303
415	0.0003560071
415.625	0.0003552666
416.25	0.0003541528
416.875	0.000356366
417.5	0.0003526965
418.125	0.0003506619
418.75	0.0003468494
419.375	0.0003479054
420	0.0003458346
420.625	0.0003482429
421.25	0.0003500312
421.875	0.000349245
422.5	0.0003465324
423.125	0.0003428636
423.75	0.0003412197
424.375	0.0003358081
425	0.0003378497
425.625	0.0003361078
426.25	0.0003357785
426.875	0.0003307055
427.5	0.00032919
428.125	0.0003229113
428.75	0.0003189429
429.375	0.0003189387
430	0.0003189466
430.625	0.0003192982
431.25	0.0003178937
431.875	0.0003185376
432.5	0.0003118573
433.125	0.0003106694
433.75	0.0003079885
434.375	0.0003096996
435	0.0003069563
435.625	0.0003089602
436.25	0.0003057397
436.875	0.0003002567
437.5	0.0002954374
438.125	0.0002911705
438.75	0.0002879232
439.375	0.0002844604
440	0.0002864196
440.625	0.0002822779
441.25	0.0002793005
441.875	0.0002740314
442.5	0.0002717532
443.125	0.000266635
443.75	0.0002669072
444.375	0.0002679385
445	0.0002664154
445.625	0.000265344
446.25	0.0002614886
446.875	0.0002591832
447.5	0.0002516405
448.125	0.0002516436
448.75	0.0002486328
449.375	0.0002477262
450	0.0002438075
450.625	0.0002416622
451.25	0.0002347353
451.875	0.0002283105
452.5	0.0002253209
453.125	0.0002213327
453.75	0.0002210616
454.375	0.0002183506
455	0.0002192343
455.625	0.000212859
456.25	0.0002105732
456.875	0.0002051279
457.5	0.000204178
458.125	0.0002007176
458.75	0.0002018531
459.375	0.00020055
460	0.0001969739
460.625	0.0001924011
461.25	0.0001862358
461.875	0.0001815706
462.5	0.0001756471
463.125	0.0001748209
463.75	0.0001711915
464.375	0.0001692755
465	0.0001637463
465.625	0.0001599107
466.25	0.0001536668
466.875	0.0001495258
467.5	0.0001480096
468.125	0.0001469266
468.75	0.0001468787
469.375	0.0001434739
470	0.0001420925
470.625	0.0001347595
471.25	0.0001322279
471.875	0.0001273122
472.5	0.0001269565
473.125	0.0001233154
473.75	0.0001219969
474.375	0.0001176551
475	0.0001106727
475.625	0.000105096
476.25	9.88707e-5
476.875	9.703033e-5
477.5	9.303321e-5
478.125	9.450439e-5
478.75	9.017983e-5
479.375	8.765888e-5
480	8.115004e-5
480.625	7.96377e-5
481.25	7.50766e-5
481.875	7.511029e-5
482.5	7.52944e-5
483.125	7.354384e-5
483.75	7.000381e-5
484.375	6.470052e-5
485	6.065207e-5
485.625	5.328994e-5
486.25	5.186754e-5
486.875	4.950674e-5
487.5	4.841601e-5
488.125	4.32138e-5
488.75	4.082621e-5
489.375	3.435792e-5
490	2.98525e-5
490.625	2.986278e-5
491.25	3.09114e-5
491.875	3.113619e-5
492.5	3.124697e-5
493.125	3.112784e-5
493.75	2.501493e-5
494.375	2.519225e-5
495	2.463895e-5
495.625	2.670257e-5
496.25	2.617537e-5
496.875	2.942732e-5
497.5	2.497259e-5
498.125	2.488254e-5
498.75	2.568754e-5
499.375	3.022197e-5
500	3.326513e-5
500.625	4.040748e-5
501.25	4.278074e-5
501.875	4.382954e-5
502.5	4.667248e-5
503.125	4.870677e-5
503.75	5.227833e-5
504.375	5.579654e-5
505	6.227764e-5
505.625	6.206401e-5
506.25	6.462654e-5
506.875	6.32751e-5
507.5	6.556027e-5
508.125	6.433124e-5
508.75	7.044771e-5
509.375	7.366197e-5
510	7.70207e-5
510.625	7.973031e-5
511.25	8.199352e-5
511.875	8.31296e-5
512.5	8.388334e-5
513.125	9.070387e-5
513.75	9.356812e-5
514.375	9.931588e-5
515	0.0001011808
515.625	0.0001054144
516.25	0.0001027021
516.875	0.0001047276
517.5	0.0001056592
518.125	0.0001083269
518.75	0.0001105955
519.375	0.0001139393
520	0.0001157222
520.625	0.0001137064
521.25	0.000115273
521.875	0.0001152092
522.5	0.0001186123
523.125	0.0001213337
523.75	0.0001281053
524.375	0.0001302211
525	0.0001320573
525.625	0.0001336068
526.25	0.000134091
526.875	0.0001365823
527.5	0.0001387357
528.125	0.0001450032
528.75	0.0001454422
529.375	0.0001490132
530	0.0001468026
530.625	0.0001477524
531.25	0.0001448574
531.875	0.0001477397
532.5	0.0001499898
533.125	0.0001535301
533.75	0.0001557418
534.375	0.0001570202
535	0.0001580886
535.625	0.0001566635
536.25	0.000160412
536.875	0.0001621387
537.5	0.0001687758
538.125	0.0001700563
538.75	0.0001752608
539.375	0.0001742848
540	0.0001744649
540.625	0.0001736146
541.25	0.0001756066
541.875	0.000177281
542.5	0.0001790324
543.125	0.000182528
543.75	0.0001813608
544.375	0.0001807074
545	0.0001786114
545.625	0.0001804428
546.25	0.0001801865
546.875	0.0001843561
547.5	0.0001883871
548.125	0.0001903125
548.75	0.0001913536
549.375	0.0001911844
550	0.0001927266
550.625	0.0001911693
551.25	0.0001965697
551.875	0.0001983659
552.5	0.0002019584
553.125	0.0002005431
553.75	0.0002025922
554.375	0.0001985067
555	0.0001972136
555.625	0.0001977666
556.25	0.0001996129
556.875	0.0002011462
557.5	0.0002018348
558.125	0.0002048067
558.75	0.0002003503
559.375	0.0002012622
560	0.0002003706
560.625	0.0002043961
561.25	0.0002049126
561.875	0.0002111476
562.5	0.0002117073
563.125	0.0002116573
563.75	0.0002101725
564.375	0.0002104064
565	0.0002092906
565.625	0.0002095502
566.25	0.0002141669
566.875	0.0002134379
567.5	0.0002130859
568.125	0.0002107647
568.75	0.0002096518
569.375	0.0002057504
570	0.0002072842
570.625	0.000210301
571.25	0.0002115405
571.875	0.0002132988
572.5	0.0002133614
573.125	0.0002135508
573.75	0.0002096753
574.375	0.00021331
575	0.0002132789
575.625	0.0002171678
576.25	0.0002175123
576.875	0.0002200465
577.5	0.0002164082
578.125	0.0002136384
578.75	0.0002126724
579.375	0.0002112828
580	0.0002121963
580.625	0.0002120974
581.25	0.0002148381
581.875	0.0002104469
582.5	0.000210566
583.125	0.0002072321
583.75	0.0002081483
584.375	0.0002069507
585	0.0002116379
585.625	0.0002129024
586.25	0.0002133961
586.875	0.0002132035
587.5	0.0002114549
588.125	0.0002099342
588.75	0.0002086784
589.375	0.000211322
590	0.0002110408
590.625	0.0002118169
591.25	0.00020953
591.875	0.0002080514
592.5	0.0002034808
593.125	0.0002015034
593.75	0.0002016125
594.375	0.0002016586
595	0.0002033745
595.625	0.0002026486
596.25	0.0002036143
596.875	0.0001992746
597.5	0.0001999035
598.125	0.0001981979
598.75	0.0002010291
599.375	0.00020088
600	0.0002038022
600.625	0.0002031627
601.25	0.0002007742
601.875	0.0001982308
602.5	0.0001951995
603.125	0.0001949224
603.75	0.0001925529
604.375	0.0001953749
605	0.0001930475
605.625	0.000192699
606.25	0.0001877419
606.875	0.000187017
607.5	0.0001831019
608.125	0.0001841614
608.75	0.000185722
609.375	0.0001875747
610	0.0001876264
610.625	0.0001863409
611.25	0.0001858886
611.875	0.0001814183
612.5	0.0001819136
613.125	0.0001815799
613.75	0.0001833149
614.375	0.0001816765
615	0.0001819937
615.625	0.0001784592
616.25	0.0001733335
616.875	0.0001709722
617.5	0.0001694614
618.125	0.0001695522
618.75	0.0001681797
619.375	0.0001712703
620	0.0001666608
620.625	0.0001656048
621.25	0.0001623507
621.875	0.0001629238
622.5	0.0001612305
623.125	0.0001641739
623.75	0.000166512
624.375	0.0001639159
625	0.0001624463
625.625	0.0001590412
626.25	0.0001572593
626.875	0.0001525651
627.5	0.0001553436
628.125	0.0001538998
628.75	0.0001532641
629.375	0.0001499157
630	0.0001484122
630.625	0.0001426378
631.25	0.0001401229
631.875	0.0001410758
632.5	0.0001412363
633.125	0.0001417413
633.75	0.0001420845
634.375	0.0001419319
635	0.0001368539
635.625	0.0001363448
636.25	0.0001352616
636.875	0.0001356597
637.5	0.0001347529
638.125	0.0001365586
638.75	0.0001341865
639.375	0.0001296646
640	0.0001272438
640.625	0.0001230261
641.25	0.0001217484
641.875	0.0001197286
642.5	0.0001224102
643.125	0.000118967
643.75	0.0001179912
644.375	0.0001147925
645	0.0001133353
645.625	0.000110554
646.25	0.000112407
646.875	0.0001137897
647.5	0.000113282
648.125	0.0001139693
648.75	0.0001110369
649.375	0.0001092106
650	0.0001040402
650.625	0.0001053993
651.25	0.0001029028
651.875	0.0001039451
652.5	0.0001015005
653.125	0.0001003056
653.75	9.554472e-5
654.375	9.197834e-5
