Source File Name:	Analyzer
Signal:	FFT - Vib Velocity - Magnitude

Frequency	Magnitude
[ Hz ]	[ m/s ]
20	0.001165776
20.625	0.001009319
21.25	0.0009000215
21.875	0.0008071444
22.5	0.000725955
23.125	0.0006653616
23.75	0.0005780071
24.375	0.0005563304
25	0.0005010858
25.625	0.0004628333
26.25	0.0004311109
26.875	0.0004039778
27.5	0.000381679
28.125	0.000364975
28.75	0.0003536357
29.375	0.0003520715
30	0.0003598376
30.625	0.0003772447
31.25	0.0004045275
31.875	0.0004384722
32.5	0.0004758276
33.125	0.0005136215
33.75	0.0005468781
34.375	0.0005704798
35	0.0005791397
35.625	0.0005732384
36.25	0.0005529124
36.875	0.0005252031
37.5	0.0004994969
38.125	0.0004799252
38.75	0.0004665538
39.375	0.000456947
40	0.0004484348
40.625	0.0004393212
41.25	0.0004296851
41.875	0.0004249923
42.5	0.0004180663
43.125	0.0004119162
43.75	0.0004061762
44.375	0.0004018359
45	0.000395887
45.625	0.0003950372
46.25	0.0003899886
46.875	0.0003863261
47.5	0.0003834898
48.125	0.0003805606
48.75	0.000377153
49.375	0.0003729466
50	0.0003705029
50.625	0.0003657572
51.25	0.0003597284
51.875	0.0003536571
52.5	0.0003502073
53.125	0.0003430407
53.75	0.000339469
54.375	0.0003356875
55	0.0003319513
55.625	0.0003318861
56.25	0.0003334512
56.875	0.0003247358
57.5	0.0003149314
58.125	0.0003106652
58.75	0.0003037034
59.375	0.0003014002
60	0.0002968976
60.625	0.0002938539
61.25	0.0002895208
61.875	0.0002904982
62.5	0.0002816199
63.125	0.00028083
63.75	0.000277545
64.375	0.0002742936
65	0.0002690367
65.625	0.0002655464
66.25	0.0002612495
66.875	0.0002569948
67.5	0.0002535373
68.125	0.0002494072
68.75	0.0002457299
69.375	0.00024374
70	0.0002398286
70.625	0.000237067
71.25	0.0002342378
71.875	0.0002315886
72.5	0.0002280816
73.125	0.0002244051
73.75	0.0002217038
74.375	0.0002184813
75	0.0002158404
75.625	0.0002128936
76.25	0.0002101246
76.875	0.0002072839
77.5	0.0002048327
78.125	0.0002025139
78.75	0.0001995571
79.375	0.0001968905
80	0.0001945511
80.625	0.0001910226
81.25	0.0001882995
81.875	0.0001850634
82.5	0.0001816089
83.125	0.0001799181
83.75	0.0001771626
84.375	0.0001716069
85	0.0001697882
85.625	0.0001684542
86.25	0.0001655418
86.875	0.0001635346
87.5	0.0001624005
88.125	0.0001597212
88.75	0.0001585678
89.375	0.0001580694
90	0.0001558585
90.625	0.0001538539
91.25	0.0001519035
91.875	0.0001508948
92.5	0.0001494824
93.125	0.0001485433
93.75	0.0001476964
94.375	0.0001464375
95	0.0001449617
95.625	0.0001447819
96.25	0.0001434222
96.875	0.0001421439
97.5	0.0001413945
98.125	0.0001406109
98.75	0.0001399233
99.375	0.0001395456
100	0.0001391489
100.625	0.000138955
101.25	0.0001389414
101.875	0.0001391221
102.5	0.0001391533
103.125	0.0001396656
103.75	0.0001400646
104.375	0.0001406532
105	0.0001409624
105.625	0.00014171
106.25	0.0001422623
106.875	0.0001428283
107.5	0.0001439427
108.125	0.0001450017
108.75	0.0001458134
109.375	0.0001470873
110	0.000148101
110.625	0.000149206
111.25	0.0001506802
111.875	0.000151978
112.5	0.0001531323
113.125	0.0001547887
113.75	0.0001564153
114.375	0.000157949
115	0.0001596657
115.625	0.0001614537
116.25	0.0001633444
116.875	0.0001650195
117.5	0.0001669235
118.125	0.0001688511
118.75	0.00017055
119.375	0.0001727954
120	0.0001743833
120.625	0.0001764949
121.25	0.0001784194
121.875	0.0001805195
122.5	0.0001825605
123.125	0.0001846034
123.75	0.0001870084
124.375	0.0001893075
125	0.00019141
125.625	0.0001941321
126.25	0.0001965254
126.875	0.0001992231
127.5	0.0002019464
128.125	0.0002045826
128.75	0.0002073412
129.375	0.0002102262
130	0.0002129521
130.625	0.0002157223
131.25	0.0002189863
131.875	0.0002220059
132.5	0.0002251105
133.125	0.0002283174
133.75	0.0002320649
134.375	0.0002355372
135	0.0002391641
135.625	0.0002432769
136.25	0.0002473176
136.875	0.0002516659
137.5	0.000256038
138.125	0.0002605754
138.75	0.0002653886
139.375	0.0002704239
140	0.0002754506
140.625	0.0002803471
141.25	0.0002859503
141.875	0.0002915402
142.5	0.0002970173
143.125	0.0003027564
143.75	0.000309389
144.375	0.0003159002
145	0.0003229277
145.625	0.0003305858
146.25	0.0003387106
146.875	0.0003478008
147.5	0.0003579441
148.125	0.0003688401
148.75	0.000381227
149.375	0.0003949919
150	0.0004105248
150.625	0.0004268834
151.25	0.0004454136
151.875	0.0004652399
152.5	0.0004864472
153.125	0.0005088245
153.75	0.0005328901
154.375	0.0005580396
155	0.0005848244
155.625	0.0006133259
156.25	0.0006432015
156.875	0.000675499
157.5	0.0007097885
158.125	0.0007463486
158.75	0.0007852862
159.375	0.0008264926
160	0.0008698136
160.625	0.0009150923
161.25	0.0009623254
161.875	0.001011868
162.5	0.001062569
163.125	0.001114906
163.75	0.001166992
164.375	0.001217337
165	0.001263861
165.625	0.001303473
166.25	0.001333145
166.875	0.001349075
167.5	0.001349558
168.125	0.001333121
168.75	0.001300117
169.375	0.001253662
170	0.001198046
170.625	0.001137473
171.25	0.001075986
171.875	0.001016363
172.5	0.0009608368
173.125	0.0009096274
173.75	0.0008638547
174.375	0.0008230808
175	0.000786672
175.625	0.0007550573
176.25	0.0007270843
176.875	0.0007028327
177.5	0.0006818881
178.125	0.0006639101
178.75	0.0006484651
179.375	0.0006353147
180	0.0006244162
180.625	0.0006150961
181.25	0.0006071724
181.875	0.00060061
182.5	0.0005944135
183.125	0.0005888037
183.75	0.0005831755
184.375	0.0005772153
185	0.0005707135
185.625	0.0005639129
186.25	0.0005567404
186.875	0.0005488681
187.5	0.0005408012
188.125	0.0005328552
188.75	0.0005248018
189.375	0.0005171723
190	0.000510066
190.625	0.0005030631
191.25	0.0004963973
191.875	0.0004903125
192.5	0.0004842686
193.125	0.0004788692
193.75	0.0004733987
194.375	0.0004685572
195	0.0004635625
195.625	0.000458791
196.25	0.0004540525
196.875	0.0004492
197.5	0.0004443393
198.125	0.0004397529
198.75	0.0004344796
199.375	0.0004295408
200	0.0004243198
200.625	0.0004192693
201.25	0.0004141832
201.875	0.0004092392
202.5	0.0004046275
203.125	0.0004004667
203.75	0.0003974563
204.375	0.0003952973
205	0.0003941717
205.625	0.0003943804
206.25	0.0003955827
206.875	0.0003976176
207.5	0.0004005785
208.125	0.0004041692
208.75	0.0004076837
209.375	0.0004116479
210	0.0004156008
210.625	0.0004193197
211.25	0.0004232205
211.875	0.0004266093
212.5	0.0004301282
213.125	0.0004334289
213.75	0.0004370692
214.375	0.0004404078
215	0.0004436825
215.625	0.0004471497
216.25	0.0004504275
216.875	0.0004535772
217.5	0.0004565899
218.125	0.0004601537
218.75	0.0004627078
219.375	0.0004656458
220	0.0004679955
220.625	0.0004698887
221.25	0.0004713162
221.875	0.000472003
222.5	0.000471904
223.125	0.0004710428
223.75	0.000468982
224.375	0.0004656648
225	0.0004612763
225.625	0.0004557499
226.25	0.0004488288
226.875	0.0004399923
227.5	0.0004301164
228.125	0.0004183361
228.75	0.000405059
229.375	0.0003905992
230	0.0003753851
230.625	0.0003587464
231.25	0.0003423803
231.875	0.0003258809
232.5	0.0003097433
233.125	0.0002947534
233.75	0.0002805258
234.375	0.000267305
235	0.0002552396
235.625	0.0002437146
236.25	0.0002335746
236.875	0.0002231949
237.5	0.0002139583
238.125	0.000204964
238.75	0.0001963417
239.375	0.0001884308
240	0.0001810129
240.625	0.0001738188
241.25	0.0001673689
241.875	0.0001614929
242.5	0.0001560129
243.125	0.0001513266
243.75	0.0001469235
244.375	0.0001430419
245	0.00013949
245.625	0.0001366599
246.25	0.0001339961
246.875	0.0001322036
247.5	0.0001308806
248.125	0.0001294809
248.75	0.0001286111
249.375	0.0001281419
250	0.0001276771
250.625	0.0001278852
251.25	0.0001281153
251.875	0.000128736
252.5	0.0001294472
253.125	0.0001305032
253.75	0.0001318732
254.375	0.0001334002
255	0.000135161
255.625	0.000137167
256.25	0.0001388674
256.875	0.0001408554
257.5	0.000142988
258.125	0.0001447727
258.75	0.0001465675
259.375	0.0001483253
260	0.0001496593
260.625	0.0001510115
261.25	0.000152116
261.875	0.0001526697
262.5	0.0001528632
263.125	0.0001529463
263.75	0.0001520459
264.375	0.000151023
265	0.0001497592
265.625	0.0001479745
266.25	0.0001458889
266.875	0.0001433269
267.5	0.0001409124
268.125	0.0001378397
268.75	0.0001346772
269.375	0.0001315152
270	0.0001280541
270.625	0.0001245778
271.25	0.0001214197
271.875	0.0001177382
272.5	0.0001144144
273.125	0.0001110291
273.75	0.0001080994
274.375	0.0001053384
275	0.0001030923
275.625	0.0001009964
276.25	9.934037e-5
276.875	9.797158e-5
277.5	9.71637e-5
278.125	9.651852e-5
278.75	9.624612e-5
279.375	9.656892e-5
280	9.67728e-5
280.625	9.745501e-5
281.25	9.850061e-5
281.875	9.949564e-5
282.5	0.0001008565
283.125	0.0001023727
283.75	0.0001038971
284.375	0.0001052219
285	0.0001071013
285.625	0.0001085286
286.25	0.0001101008
286.875	0.0001118688
287.5	0.0001133201
288.125	0.0001150432
288.75	0.0001167458
289.375	0.0001185715
290	0.0001205421
290.625	0.0001224856
291.25	0.0001246944
291.875	0.0001266792
292.5	0.0001292381
293.125	0.0001315462
293.75	0.0001341596
294.375	0.0001367474
295	0.0001396452
295.625	0.000142367
296.25	0.0001451362
296.875	0.0001480763
297.5	0.0001507478
298.125	0.0001537522
298.75	0.0001566039
299.375	0.0001596398
300	0.0001626447
300.625	0.0001661051
301.25	0.0001694688
301.875	0.0001729325
302.5	0.0001771041
303.125	0.0001813124
303.75	0.0001854589
304.375	0.0001899067
305	0.00019434
305.625	0.0001991424
306.25	0.0002036257
306.875	0.0002082877
307.5	0.0002123987
308.125	0.000216728
308.75	0.0002208978
309.375	0.000224513
310	0.0002284935
310.625	0.000231974
311.25	0.0002356409
311.875	0.000238723
312.5	0.0002422384
313.125	0.0002452767
313.75	0.000248549
314.375	0.000251651
315	0.0002548505
315.625	0.0002578182
316.25	0.00026104
316.875	0.0002642808
317.5	0.000267438
318.125	0.0002707157
318.75	0.0002739442
319.375	0.0002773669
320	0.0002806835
320.625	0.0002841151
321.25	0.0002873094
321.875	0.0002905576
322.5	0.0002939254
323.125	0.0002971342
323.75	0.0003001043
324.375	0.0003034836
325	0.0003062316
325.625	0.0003094657
326.25	0.0003121898
326.875	0.0003150318
327.5	0.0003177082
328.125	0.0003206108
328.75	0.0003232248
329.375	0.0003255235
330	0.0003278774
330.625	0.0003303577
331.25	0.0003324384
331.875	0.0003348269
332.5	0.000336667
333.125	0.0003385829
333.75	0.0003406035
334.375	0.0003424468
335	0.000344112
335.625	0.0003459867
336.25	0.0003477247
336.875	0.000349339
337.5	0.000351312
338.125	0.0003528963
338.75	0.0003547189
339.375	0.0003561545
340	0.000358215
340.625	0.0003596793
341.25	0.0003611759
341.875	0.0003627532
342.5	0.0003642329
343.125	0.0003654317
343.75	0.0003667618
344.375	0.0003677023
345	0.0003688779
345.625	0.0003696426
346.25	0.0003704737
346.875	0.0003710082
347.5	0.0003715229
348.125	0.0003720759
348.75	0.0003720879
349.375	0.0003723998
350	0.0003725934
350.625	0.0003723167
351.25	0.0003722724
351.875	0.0003722738
352.5	0.0003719383
353.125	0.0003716428
353.75	0.00037126
354.375	0.0003708056
355	0.000369975
355.625	0.0003694465
356.25	0.0003686429
356.875	0.0003679838
357.5	0.0003672307
358.125	0.0003662909
358.75	0.00036509
359.375	0.0003639258
360	0.0003627008
360.625	0.0003613009
361.25	0.0003598758
361.875	0.0003583842
362.5	0.0003568314
363.125	0.0003549336
363.75	0.0003531961
364.375	0.0003514168
365	0.0003494448
365.625	0.0003475246
366.25	0.0003455037
366.875	0.0003434419
367.5	0.0003414125
368.125	0.0003393333
368.75	0.0003372748
369.375	0.0003351436
370	0.0003333243
370.625	0.0003310441
371.25	0.000329359
371.875	0.0003272192
372.5	0.0003252116
373.125	0.0003231775
373.75	0.0003213598
374.375	0.0003192912
375	0.0003172296
375.625	0.0003153387
376.25	0.0003136356
376.875	0.0003117291
377.5	0.0003101084
378.125	0.0003082153
378.75	0.0003067252
379.375	0.0003049708
380	0.0003036031
380.625	0.0003019621
381.25	0.0003004955
381.875	0.0002991351
382.5	0.0002975116
383.125	0.0002962706
383.75	0.0002948335
384.375	0.0002937102
385	0.000292228
385.625	0.0002913042
386.25	0.0002898018
386.875	0.0002885107
387.5	0.0002872919
388.125	0.0002861294
388.75	0.0002849219
389.375	0.0002838205
390	0.0002826105
390.625	0.0002815235
391.25	0.000280275
391.875	0.0002793741
392.5	0.000277964
393.125	0.0002770486
393.75	0.0002758354
394.375	0.0002747687
395	0.0002733774
395.625	0.0002721983
396.25	0.0002707746
396.875	0.0002694922
397.5	0.0002681702
398.125	0.0002664851
398.75	0.0002651619
399.375	0.0002633717
400	0.000262039
400.625	0.0002602638
401.25	0.0002586317
401.875	0.0002569886
402.5	0.0002551581
403.125	0.0002533547
403.75	0.0002516624
404.375	0.000249734
405	0.0002482044
405.625	0.0002461755
406.25	0.0002447522
406.875	0.000242586
407.5	0.0002410552
408.125	0.000238883
408.75	0.0002375427
409.375	0.0002352614
410	0.000233592
410.625	0.0002315202
411.25	0.0002296394
411.875	0.00022764
412.5	0.0002257047
413.125	0.0002237874
413.75	0.0002217544
414.375	0.0002198317
415	0.0002177475
415.625	0.0002155721
416.25	0.0002135528
416.875	0.0002114451
417.5	0.0002092651
418.125	0.0002073018
418.75	0.0002050408
419.375	0.0002031081
420	0.0002008676
420.625	0.0001990826
421.25	0.0001970848
421.875	0.0001948719
422.5	0.0001929356
423.125	0.0001908925
423.75	0.0001889718
424.375	0.0001870538
425	0.000184959
425.625	0.0001830698
426.25	0.0001809975
426.875	0.0001792327
427.5	0.000176976
428.125	0.0001750674
428.75	0.0001729593
429.375	0.0001712073
430	0.0001688224
430.625	0.0001669819
431.25	0.0001646877
431.875	0.0001629916
432.5	0.0001608105
433.125	0.0001588111
433.75	0.0001566446
434.375	0.0001546649
435	0.0001525719
435.625	0.0001505883
436.25	0.0001484705
436.875	0.0001466232
437.5	0.0001445863
438.125	0.000142429
438.75	0.0001404201
439.375	0.0001382246
440	0.0001364019
440.625	0.0001344432
441.25	0.000132296
441.875	0.0001302781
442.5	0.0001280703
443.125	0.0001261329
443.75	0.000124222
444.375	0.0001222412
445	0.0001205633
445.625	0.000118442
446.25	0.0001169572
446.875	0.0001149097
447.5	0.000113449
448.125	0.0001115688
448.75	0.0001102762
449.375	0.0001085077
450	0.0001074682
450.625	0.0001059437
451.25	0.0001048585
451.875	0.0001038192
452.5	0.0001027032
453.125	0.00010193
453.75	0.0001011866
454.375	0.0001005606
455	9.985705e-5
455.625	9.946396e-5
456.25	9.90909e-5
456.875	9.857918e-5
457.5	9.844695e-5
458.125	9.823289e-5
458.75	9.825396e-5
459.375	9.828288e-5
460	9.843107e-5
460.625	9.862377e-5
461.25	9.879163e-5
461.875	9.908454e-5
462.5	9.945287e-5
463.125	9.997992e-5
463.75	0.0001005823
464.375	0.000101094
465	0.0001018335
465.625	0.0001024252
466.25	0.0001033672
466.875	0.0001038857
467.5	0.0001048418
468.125	0.0001053892
468.75	0.0001063119
469.375	0.0001069387
470	0.0001077572
470.625	0.0001085769
471.25	0.000109399
471.875	0.0001102394
472.5	0.0001108867
473.125	0.0001117991
473.75	0.0001125215
474.375	0.0001133109
475	0.0001138811
475.625	0.0001146693
476.25	0.0001154848
476.875	0.0001159383
477.5	0.0001167089
478.125	0.0001174741
478.75	0.0001178234
479.375	0.0001189314
480	0.0001192078
480.625	0.0001200793
481.25	0.0001203858
481.875	0.0001211329
482.5	0.0001215624
483.125	0.0001221648
483.75	0.0001225963
484.375	0.0001230192
485	0.0001235996
485.625	0.00012398
486.25	0.0001246918
486.875	0.0001248526
487.5	0.0001254346
488.125	0.0001255648
488.75	0.0001259325
489.375	0.0001261797
490	0.0001263719
490.625	0.0001267606
491.25	0.0001269167
491.875	0.0001269316
492.5	0.0001272694
493.125	0.0001272586
493.75	0.0001276209
494.375	0.000127496
495	0.0001277211
495.625	0.0001278068
496.25	0.0001278399
496.875	0.0001279655
497.5	0.0001279546
498.125	0.0001279391
498.75	0.0001278823
499.375	0.0001279913
500	0.0001278037
500.625	0.000127697
501.25	0.0001275715
501.875	0.0001274093
502.5	0.0001271852
503.125	0.0001269974
503.75	0.0001267574
504.375	0.0001264576
505	0.0001260681
505.625	0.0001255462
506.25	0.0001250073
506.875	0.0001247308
507.5	0.0001240905
508.125	0.0001237148
508.75	0.0001229821
509.375	0.0001223624
510	0.0001216864
510.625	0.000120936
511.25	0.0001202849
511.875	0.0001191213
512.5	0.0001186699
513.125	0.0001176831
513.75	0.0001167287
514.375	0.000115664
515	0.0001149093
515.625	0.0001138385
516.25	0.0001128335
516.875	0.0001117827
517.5	0.0001109219
518.125	0.0001099135
518.75	0.0001087985
519.375	0.0001077875
520	0.000106595
520.625	0.0001057273
521.25	0.0001044624
521.875	0.0001035078
522.5	0.000102445
523.125	0.0001012288
523.75	0.0001001239
524.375	9.919162e-5
525	9.8265e-5
525.625	9.728879e-5
526.25	9.598149e-5
526.875	9.508326e-5
527.5	9.383872e-5
528.125	9.257717e-5
528.75	9.174328e-5
529.375	9.051484e-5
530	8.959941e-5
530.625	8.845764e-5
531.25	8.712751e-5
531.875	8.616588e-5
532.5	8.496495e-5
533.125	8.378141e-5
533.75	8.27828e-5
534.375	8.143929e-5
535	8.039665e-5
535.625	7.879492e-5
536.25	7.788355e-5
536.875	7.658926e-5
537.5	7.545319e-5
538.125	7.424472e-5
538.75	7.295362e-5
539.375	7.1871e-5
540	7.044806e-5
540.625	6.936408e-5
541.25	6.819253e-5
541.875	6.697329e-5
542.5	6.5693e-5
543.125	6.451814e-5
543.75	6.325313e-5
544.375	6.201938e-5
545	6.079264e-5
545.625	5.965604e-5
546.25	5.865561e-5
546.875	5.724792e-5
547.5	5.634377e-5
548.125	5.512255e-5
548.75	5.390585e-5
549.375	5.287983e-5
550	5.167549e-5
550.625	5.07149e-5
551.25	4.950601e-5
551.875	4.826759e-5
552.5	4.764671e-5
553.125	4.652836e-5
553.75	4.565555e-5
554.375	4.466929e-5
555	4.373291e-5
555.625	4.280543e-5
556.25	4.175839e-5
556.875	4.110531e-5
557.5	4.017451e-5
558.125	3.981675e-5
558.75	3.875339e-5
559.375	3.840926e-5
560	3.782769e-5
560.625	3.715882e-5
561.25	3.684592e-5
561.875	3.636684e-5
562.5	3.601293e-5
563.125	3.581766e-5
563.75	3.575724e-5
564.375	3.538851e-5
565	3.552598e-5
565.625	3.551679e-5
566.25	3.55421e-5
566.875	3.583476e-5
567.5	3.601458e-5
568.125	3.663591e-5
568.75	3.670415e-5
569.375	3.739926e-5
570	3.770649e-5
570.625	3.838452e-5
571.25	3.913224e-5
571.875	3.983622e-5
572.5	4.063828e-5
573.125	4.154364e-5
573.75	4.254736e-5
574.375	4.334938e-5
575	4.428187e-5
575.625	4.544165e-5
576.25	4.633161e-5
576.875	4.756537e-5
577.5	4.851738e-5
578.125	4.983524e-5
578.75	5.09151e-5
579.375	5.224814e-5
580	5.350178e-5
580.625	5.467975e-5
581.25	5.59288e-5
581.875	5.698635e-5
582.5	5.839485e-5
583.125	5.979761e-5
583.75	6.101714e-5
584.375	6.222178e-5
585	6.351224e-5
585.625	6.463493e-5
586.25	6.59839e-5
586.875	6.736386e-5
587.5	6.869718e-5
588.125	7.006151e-5
588.75	7.134916e-5
589.375	7.259992e-5
590	7.394428e-5
590.625	7.518979e-5
591.25	7.643632e-5
591.875	7.766961e-5
592.5	7.899642e-5
593.125	8.010905e-5
593.75	8.128893e-5
594.375	8.251242e-5
595	8.367904e-5
595.625	8.481083e-5
596.25	8.589779e-5
596.875	8.701003e-5
597.5	8.804472e-5
598.125	8.910576e-5
598.75	9.030748e-5
599.375	9.126049e-5
600	9.223869e-5
600.625	9.334232e-5
601.25	9.418706e-5
601.875	9.51117e-5
602.5	9.631341e-5
603.125	9.715704e-5
603.75	9.822087e-5
604.375	9.926892e-5
605	0.000100248
605.625	0.0001008899
606.25	0.0001018669
606.875	0.0001027158
607.5	0.0001034154
608.125	0.0001043046
608.75	0.0001052531
609.375	0.0001059451
610	0.0001066677
610.625	0.0001076072
611.25	0.0001079212
611.875	0.000109
612.5	0.000109625
613.125	0.0001103654
613.75	0.0001111335
614.375	0.0001116991
615	0.0001124761
615.625	0.0001130101
616.25	0.0001136765
616.875	0.0001144821
617.5	0.0001148827
618.125	0.0001157528
618.75	0.000116232
619.375	0.0001166685
620	0.0001174349
620.625	0.0001180153
621.25	0.0001184292
621.875	0.0001190826
622.5	0.0001197237
623.125	0.0001198572
623.75	0.0001206029
624.375	0.0001209413
625	0.0001215126
625.625	0.0001219515
626.25	0.0001224068
626.875	0.0001230262
627.5	0.000123309
628.125	0.0001239066
628.75	0.0001243241
629.375	0.0001244397
630	0.0001250533
630.625	0.0001253346
631.25	0.0001258144
631.875	0.000126351
632.5	0.0001265479
633.125	0.0001269109
633.75	0.0001275034
634.375	0.0001277526
635	0.0001277797
635.625	0.000128419
636.25	0.0001286246
636.875	0.0001287974
637.5	0.0001287923
638.125	0.0001290605
638.75	0.0001292659
639.375	0.0001291351
640	0.000129738
640.625	0.0001296712
641.25	0.0001296982
641.875	0.0001299314
642.5	0.0001297668
643.125	0.0001299891
643.75	0.0001299275
644.375	0.0001301343
645	0.0001299494
645.625	0.0001301264
646.25	0.0001303893
646.875	0.0001299915
647.5	0.000130213
648.125	0.0001300064
648.75	0.0001302048
649.375	0.0001298636
650	0.0001300801
650.625	0.0001298376
651.25	0.0001296258
651.875	0.0001297715
652.5	0.0001293713
653.125	0.0001292345
653.75	0.0001292077
654.375	0.0001289062
