Source File Name:	Analyzer
Signal:	FFT - Vib Velocity - Magnitude

Frequency	Magnitude
[ Hz ]	[ m/s ]
20	0.001279738
20.625	0.001022993
21.25	0.0009056603
21.875	0.0008132539
22.5	0.0007146657
23.125	0.0006491467
23.75	0.000595231
24.375	0.0005440525
25	0.0004977019
25.625	0.0004615316
26.25	0.0004227449
26.875	0.0003957885
27.5	0.0003718905
28.125	0.000345237
28.75	0.0003370695
29.375	0.0003372109
30	0.0003351314
30.625	0.0003439572
31.25	0.0003698599
31.875	0.0003962326
32.5	0.0004289585
33.125	0.0004538909
33.75	0.0004696892
34.375	0.0004906902
35	0.0005043639
35.625	0.0004929256
36.25	0.0004723762
36.875	0.0004462074
37.5	0.0004172119
38.125	0.0003992735
38.75	0.0003859594
39.375	0.0003729131
40	0.0003638503
40.625	0.000358979
41.25	0.0003513181
41.875	0.0003432327
42.5	0.0003337146
43.125	0.0003243284
43.75	0.0003189118
44.375	0.000319667
45	0.0003128026
45.625	0.0003084757
46.25	0.0002987884
46.875	0.0002907453
47.5	0.0002920118
48.125	0.0002953439
48.75	0.0002902272
49.375	0.0002791658
50	0.0002759796
50.625	0.0002753594
51.25	0.0002687071
51.875	0.0002670284
52.5	0.0002597892
53.125	0.0002515992
53.75	0.0002528342
54.375	0.0002399862
55	0.0002463472
55.625	0.000237701
56.25	0.000240642
56.875	0.0002289698
57.5	0.0002255759
58.125	0.0002285772
58.75	0.0002149312
59.375	0.0002206354
60	0.0002113436
60.625	0.0002124664
61.25	0.0002098199
61.875	0.000206772
62.5	0.0002026192
63.125	0.0002075446
63.75	0.0002043107
64.375	0.0001958318
65	0.0001962483
65.625	0.0001970305
66.25	0.0001882705
66.875	0.0001900186
67.5	0.0001859539
68.125	0.0001788568
68.75	0.0001843112
69.375	0.0001858193
70	0.0001733834
70.625	0.0001769878
71.25	0.0001780061
71.875	0.0001726966
72.5	0.0001799569
73.125	0.000177275
73.75	0.0001659381
74.375	0.0001689739
75	0.0001683679
75.625	0.0001669779
76.25	0.0001725737
76.875	0.0001660876
77.5	0.0001554478
78.125	0.0001642973
78.75	0.000162406
79.375	0.0001559231
80	0.0001575894
80.625	0.0001574545
81.25	0.0001534982
81.875	0.0001596501
82.5	0.0001518841
83.125	0.0001459348
83.75	0.0001505654
84.375	0.000151557
85	0.0001466398
85.625	0.0001472316
86.25	0.0001407663
86.875	0.0001377931
87.5	0.000143238
88.125	0.0001422937
88.75	0.0001388635
89.375	0.000142385
90	0.0001363952
90.625	0.000133246
91.25	0.0001394916
91.875	0.000139386
92.5	0.0001328591
93.125	0.0001356633
93.75	0.0001361876
94.375	0.0001359142
95	0.0001379965
95.625	0.0001343075
96.25	0.0001348836
96.875	0.0001432291
97.5	0.0001398277
98.125	0.0001318962
98.75	0.0001357085
99.375	0.0001406436
100	0.0001403767
100.625	0.0001422474
101.25	0.0001399733
101.875	0.0001382944
102.5	0.0001427992
103.125	0.0001462286
103.75	0.0001441506
104.375	0.0001479383
105	0.0001483268
105.625	0.000145939
106.25	0.0001503998
106.875	0.0001538336
107.5	0.000151803
108.125	0.0001543471
108.75	0.0001579393
109.375	0.0001606791
110	0.0001603374
110.625	0.0001587511
111.25	0.0001562397
111.875	0.0001628649
112.5	0.0001671299
113.125	0.0001663518
113.75	0.0001638048
114.375	0.0001661945
115	0.0001695228
115.625	0.0001759944
116.25	0.0001763715
116.875	0.0001729473
117.5	0.0001724552
118.125	0.0001759333
118.75	0.0001747774
119.375	0.0001754574
120	0.0001800079
120.625	0.0001791734
121.25	0.0001804239
121.875	0.0001836729
122.5	0.0001796445
123.125	0.0001805371
123.75	0.0001862473
124.375	0.000189124
125	0.0001904494
125.625	0.0001930769
126.25	0.0001865366
126.875	0.0001903595
127.5	0.0002007693
128.125	0.0001986253
128.75	0.0001966439
129.375	0.0001999612
130	0.0001976964
130.625	0.000201944
131.25	0.0002094435
131.875	0.0002063672
132.5	0.0002067715
133.125	0.0002156902
133.75	0.0002135996
134.375	0.0002157982
135	0.000223178
135.625	0.0002211691
136.25	0.000224957
136.875	0.0002354964
137.5	0.0002326264
138.125	0.0002340773
138.75	0.000240869
139.375	0.0002395834
140	0.0002484416
140.625	0.0002592557
141.25	0.0002534912
141.875	0.0002535759
142.5	0.0002647561
143.125	0.0002684992
143.75	0.0002752351
144.375	0.000282929
145	0.000280356
145.625	0.0002892081
146.25	0.0003008626
146.875	0.0002988313
147.5	0.0003060435
148.125	0.0003222809
148.75	0.0003301811
149.375	0.000340866
150	0.0003554271
150.625	0.0003614441
151.25	0.0003784833
151.875	0.0003995251
152.5	0.0004123105
153.125	0.0004311723
153.75	0.0004542915
154.375	0.0004667326
155	0.0004901446
155.625	0.0005207679
156.25	0.0005462704
156.875	0.0005703536
157.5	0.0005983622
158.125	0.0006267097
158.75	0.0006647978
159.375	0.0007029135
160	0.0007362826
160.625	0.0007726186
161.25	0.0008196726
161.875	0.0008666769
162.5	0.0009088552
163.125	0.0009505553
163.75	0.0009991092
164.375	0.001047275
165	0.001093525
165.625	0.001132088
166.25	0.001155777
166.875	0.001172696
167.5	0.001180525
168.125	0.001168068
168.75	0.001142852
169.375	0.00111182
170	0.001061932
170.625	0.001007556
171.25	0.000956075
171.875	0.0009011847
172.5	0.0008513999
173.125	0.0008106196
173.75	0.0007642208
174.375	0.0007252255
175	0.0006964687
175.625	0.0006673286
176.25	0.0006334679
176.875	0.0006106268
177.5	0.0005924938
178.125	0.00057923
178.75	0.0005633818
179.375	0.0005454436
180	0.0005316726
180.625	0.0005286685
181.25	0.0005239494
181.875	0.0005160951
182.5	0.0005089598
183.125	0.0005062055
183.75	0.0004992436
184.375	0.0004976129
185	0.000492679
185.625	0.0004862986
186.25	0.0004814469
186.875	0.0004794328
187.5	0.0004691805
188.125	0.0004639819
188.75	0.000458552
189.375	0.0004500307
190	0.0004470317
190.625	0.0004505013
191.25	0.0004405811
191.875	0.0004318761
192.5	0.0004291935
193.125	0.0004259041
193.75	0.0004265184
194.375	0.0004287123
195	0.0004182005
195.625	0.0004135685
196.25	0.0004174132
196.875	0.0004134203
197.5	0.0004106352
198.125	0.0004123356
198.75	0.0004038652
199.375	0.0004010838
200	0.0004043621
200.625	0.0003966435
201.25	0.0003931308
201.875	0.0003965653
202.5	0.0003911956
203.125	0.0003908831
203.75	0.0003913822
204.375	0.0003807457
205	0.0003809883
205.625	0.0003909508
206.25	0.0003872333
206.875	0.000386946
207.5	0.0003879862
208.125	0.0003838485
208.75	0.0003894225
209.375	0.0003981326
210	0.0003924298
210.625	0.0003942818
211.25	0.000401402
211.875	0.0003984878
212.5	0.0004035943
213.125	0.000409522
213.75	0.0004051761
214.375	0.0004118761
215	0.0004199468
215.625	0.000415478
216.25	0.0004186025
216.875	0.0004255515
217.5	0.0004237801
218.125	0.0004327949
218.75	0.0004408244
219.375	0.0004339061
220	0.0004379691
220.625	0.0004444605
221.25	0.000445234
221.875	0.0004523562
222.5	0.0004558917
223.125	0.0004475041
223.75	0.0004518192
224.375	0.0004578568
225	0.0004516597
225.625	0.0004496704
226.25	0.0004474925
226.875	0.0004382116
227.5	0.0004342593
228.125	0.0004258273
228.75	0.0004102201
229.375	0.0003990552
230	0.0003929286
230.625	0.0003777139
231.25	0.0003640647
231.875	0.0003466389
232.5	0.0003300544
233.125	0.0003184367
233.75	0.0003097731
234.375	0.0002963033
235	0.0002860041
235.625	0.000273742
236.25	0.0002626036
236.875	0.0002568874
237.5	0.0002508902
238.125	0.0002392863
238.75	0.0002307319
239.375	0.0002246518
240	0.0002186458
240.625	0.0002113564
241.25	0.0002044096
241.875	0.0001977546
242.5	0.0001979483
243.125	0.0001956531
243.75	0.0001853415
244.375	0.0001781899
245	0.0001801324
245.625	0.0001794249
246.25	0.0001769754
246.875	0.0001721151
247.5	0.0001677998
248.125	0.0001664079
248.75	0.0001704889
249.375	0.0001674743
250	0.0001663037
250.625	0.0001652384
251.25	0.0001633094
251.875	0.0001659571
252.5	0.0001699296
253.125	0.0001672874
253.75	0.0001709833
254.375	0.00017456
255	0.0001755786
255.625	0.0001777946
256.25	0.0001800646
256.875	0.0001794614
257.5	0.0001864888
258.125	0.000191665
258.75	0.0001880101
259.375	0.0001877741
260	0.0001926053
260.625	0.0001955657
261.25	0.0001985609
261.875	0.0001997673
262.5	0.0001962238
263.125	0.0001984686
263.75	0.0002013601
264.375	0.0001992938
265	0.0001985518
265.625	0.0002000876
266.25	0.0001964685
266.875	0.0001949712
267.5	0.0001950479
268.125	0.0001885865
268.75	0.0001836053
269.375	0.0001855447
270	0.000183216
270.625	0.0001791883
271.25	0.0001729923
271.875	0.0001639136
272.5	0.0001629489
273.125	0.0001677621
273.75	0.0001596161
274.375	0.0001520454
275	0.0001497258
275.625	0.0001457138
276.25	0.0001441655
276.875	0.0001451272
277.5	0.0001377677
278.125	0.000134263
278.75	0.0001358951
279.375	0.0001305413
280	0.0001279999
280.625	0.0001305696
281.25	0.0001260019
281.875	0.0001261409
282.5	0.0001302016
283.125	0.0001258128
283.75	0.00012347
284.375	0.000126288
285	0.0001265721
285.625	0.0001312203
286.25	0.0001313821
286.875	0.0001246826
287.5	0.0001251134
288.125	0.0001336814
288.75	0.0001324112
289.375	0.0001317841
290	0.0001313127
290.625	0.0001309972
291.25	0.0001347939
291.875	0.0001368774
292.5	0.0001337626
293.125	0.0001408367
293.75	0.000145784
294.375	0.0001448406
295	0.0001451555
295.625	0.0001495863
296.25	0.0001511685
296.875	0.0001575286
297.5	0.0001621545
298.125	0.0001603163
298.75	0.0001617024
299.375	0.0001671582
300	0.0001706609
300.625	0.00017758
301.25	0.0001824838
301.875	0.0001793684
302.5	0.0001824689
303.125	0.0001908188
303.75	0.000196115
304.375	0.0001999661
305	0.0002040174
305.625	0.0002063696
306.25	0.0002146734
306.875	0.0002208713
307.5	0.0002179367
308.125	0.0002234613
308.75	0.0002335164
309.375	0.0002353632
310	0.0002384856
310.625	0.0002410794
311.25	0.0002418123
311.875	0.0002501452
312.5	0.0002589505
313.125	0.0002571017
313.75	0.0002608915
314.375	0.0002658637
315	0.0002661494
315.625	0.0002735944
316.25	0.0002829242
316.875	0.0002803676
317.5	0.0002836868
318.125	0.0002916193
318.75	0.0002930187
319.375	0.0002980049
320	0.0003032784
320.625	0.0003030754
321.25	0.0003123151
321.875	0.0003192428
322.5	0.0003153394
323.125	0.0003196183
323.75	0.0003283878
324.375	0.0003312311
325	0.0003387324
325.625	0.0003402138
326.25	0.0003369321
326.875	0.0003449305
327.5	0.000353433
328.125	0.0003508061
328.75	0.0003571645
329.375	0.0003585824
330	0.0003556569
330.625	0.0003620273
331.25	0.0003663302
331.875	0.0003617695
332.5	0.0003687782
333.125	0.0003705674
333.75	0.0003697878
334.375	0.0003737554
335	0.0003735028
335.625	0.0003684921
336.25	0.0003793663
336.875	0.0003835335
337.5	0.0003774327
338.125	0.0003791004
338.75	0.0003803598
339.375	0.0003817473
340	0.0003910837
340.625	0.0003883051
341.25	0.0003826107
341.875	0.0003900164
342.5	0.0003911625
343.125	0.000391102
343.75	0.0003996732
344.375	0.0003995284
345	0.0003974464
345.625	0.0004038772
346.25	0.0004031727
346.875	0.0004013596
347.5	0.0004093289
348.125	0.0004089933
348.75	0.0004084513
349.375	0.0004159488
350	0.0004117558
350.625	0.0004085975
351.25	0.0004179854
351.875	0.0004201497
352.5	0.0004188528
353.125	0.0004203574
353.75	0.0004160754
354.375	0.0004197465
355	0.0004281679
355.625	0.0004260264
356.25	0.0004217687
356.875	0.0004263232
357.5	0.0004245049
358.125	0.0004241004
358.75	0.0004251365
359.375	0.0004204436
360	0.0004215838
360.625	0.0004264561
361.25	0.0004189521
361.875	0.0004164392
362.5	0.0004187127
363.125	0.0004148904
363.75	0.0004149946
364.375	0.0004181214
365	0.0004092461
365.625	0.000405208
366.25	0.0004065317
366.875	0.0004048359
367.5	0.0004038082
368.125	0.0004039494
368.75	0.0003931767
369.375	0.0003911936
370	0.0003940998
370.625	0.0003910058
371.25	0.0003871617
371.875	0.0003879923
372.5	0.0003839694
373.125	0.0003847527
373.75	0.0003821562
374.375	0.0003763809
375	0.0003764234
375.625	0.0003814995
376.25	0.0003761161
376.875	0.0003721961
377.5	0.0003713693
378.125	0.000369306
378.75	0.000372669
379.375	0.0003739997
380	0.0003662833
380.625	0.0003642002
381.25	0.0003674061
381.875	0.0003644374
382.5	0.0003659557
383.125	0.0003676179
383.75	0.0003619105
384.375	0.0003607213
385	0.0003640571
385.625	0.0003600375
386.25	0.0003585165
386.875	0.0003603679
387.5	0.0003568021
388.125	0.0003578455
388.75	0.0003568296
389.375	0.0003488005
390	0.0003485098
390.625	0.0003524225
391.25	0.0003485704
391.875	0.0003456587
392.5	0.0003415391
393.125	0.0003348497
393.75	0.0003386005
394.375	0.0003402541
395	0.0003318014
395.625	0.0003282412
396.25	0.0003282353
396.875	0.0003211135
397.5	0.0003221519
398.125	0.0003194608
398.75	0.0003105676
399.375	0.0003110006
400	0.0003102064
400.625	0.0003005297
401.25	0.0002999469
401.875	0.0002982106
402.5	0.0002933402
403.125	0.0002948086
403.75	0.0002924003
404.375	0.0002807273
405	0.000282312
405.625	0.0002824833
406.25	0.0002784724
406.875	0.000276951
407.5	0.000272369
408.125	0.0002637614
408.75	0.0002676345
409.375	0.0002644566
410	0.0002598122
410.625	0.0002596722
411.25	0.0002552979
411.875	0.0002491689
412.5	0.0002523345
413.125	0.0002460666
413.75	0.0002405335
414.375	0.0002431831
415	0.0002406635
415.625	0.0002328655
416.25	0.0002303788
416.875	0.000222703
417.5	0.0002202169
418.125	0.0002248123
418.75	0.0002163684
419.375	0.000205532
420	0.0002055816
420.625	0.0002018162
421.25	0.0001982649
421.875	0.0001972115
422.5	0.00018763
423.125	0.0001830388
423.75	0.0001840646
424.375	0.0001774351
425	0.0001724024
425.625	0.0001723683
426.25	0.0001663455
426.875	0.0001615972
427.5	0.0001606036
428.125	0.0001516037
428.75	0.0001492914
429.375	0.0001511255
430	0.0001458374
430.625	0.0001457181
431.25	0.0001437906
431.875	0.0001346791
432.5	0.0001346028
433.125	0.0001412889
433.75	0.0001352853
434.375	0.0001314655
435	0.0001297443
435.625	0.0001289594
436.25	0.000129938
436.875	0.0001310947
437.5	0.0001231052
438.125	0.0001247536
438.75	0.0001263374
439.375	0.0001208487
440	0.0001173792
440.625	0.0001199643
441.25	0.0001188287
441.875	0.0001196911
442.5	0.0001159555
443.125	0.0001100098
443.75	0.0001085643
444.375	0.0001107389
445	0.0001056894
445.625	0.0001036261
446.25	9.933626e-5
446.875	9.1741e-5
447.5	9.143865e-5
448.125	9.334815e-5
448.75	8.63221e-5
449.375	8.376399e-5
450	7.757331e-5
450.625	7.151348e-5
451.25	7.225866e-5
451.875	6.985776e-5
452.5	6.045308e-5
453.125	5.862504e-5
453.75	6.021997e-5
454.375	5.046144e-5
455	4.533984e-5
455.625	4.258495e-5
456.25	3.978715e-5
456.875	4.049308e-5
457.5	3.742846e-5
458.125	2.673593e-5
458.75	2.984528e-5
459.375	3.211972e-5
460	2.94013e-5
460.625	2.940955e-5
461.25	2.832411e-5
461.875	2.867796e-5
462.5	3.444339e-5
463.125	3.479945e-5
463.75	3.476713e-5
464.375	3.859985e-5
465	3.972586e-5
465.625	4.103509e-5
466.25	4.474473e-5
466.875	4.470097e-5
467.5	5.154778e-5
468.125	5.447207e-5
468.75	5.349945e-5
469.375	5.484915e-5
470	5.836569e-5
470.625	6.132592e-5
471.25	6.760236e-5
471.875	6.733831e-5
472.5	6.320637e-5
473.125	6.76592e-5
473.75	7.111982e-5
474.375	7.427617e-5
475	7.704429e-5
475.625	7.73974e-5
476.25	7.684974e-5
476.875	8.397792e-5
477.5	8.509545e-5
478.125	8.824618e-5
478.75	9.098346e-5
479.375	9.251478e-5
480	9.584164e-5
480.625	9.98034e-5
481.25	9.590529e-5
481.875	0.0001000284
482.5	0.0001078188
483.125	0.0001097661
483.75	0.0001094988
484.375	0.0001110199
485	0.0001112067
485.625	0.0001200425
486.25	0.0001260553
486.875	0.0001226843
487.5	0.0001233325
488.125	0.0001292896
488.75	0.0001286664
489.375	0.0001337136
490	0.0001363399
490.625	0.0001365552
491.25	0.000139202
491.875	0.0001410428
492.5	0.0001403126
493.125	0.0001445876
493.75	0.0001477958
494.375	0.0001478366
495	0.0001515452
495.625	0.0001530676
496.25	0.0001510382
496.875	0.0001531142
497.5	0.0001576859
498.125	0.0001608085
498.75	0.0001644127
499.375	0.0001589864
500	0.0001576606
500.625	0.0001662795
501.25	0.000170243
501.875	0.0001670489
502.5	0.0001674922
503.125	0.0001705437
503.75	0.0001732559
504.375	0.0001749019
505	0.0001736884
505.625	0.000175122
506.25	0.0001818535
506.875	0.0001819864
507.5	0.0001789239
508.125	0.0001810557
508.75	0.0001834235
509.375	0.0001857428
510	0.0001883505
510.625	0.00018749
511.25	0.0001871589
511.875	0.000184764
512.5	0.0001868207
513.125	0.0001892849
513.75	0.0001943312
514.375	0.0001893457
515	0.0001869602
515.625	0.000187922
516.25	0.0001929074
516.875	0.0001908917
517.5	0.0001906965
518.125	0.0001880021
518.75	0.0001900784
519.375	0.0001896396
520	0.0001859394
520.625	0.00018186
521.25	0.0001860752
521.875	0.000187516
522.5	0.0001819212
523.125	0.0001771368
523.75	0.0001778487
524.375	0.00017779
525	0.0001791535
525.625	0.0001772529
526.25	0.0001731446
526.875	0.0001713786
527.5	0.0001704183
528.125	0.0001684414
528.75	0.0001701553
529.375	0.0001674073
530	0.0001635518
530.625	0.0001618635
531.25	0.0001630029
531.875	0.0001606317
532.5	0.0001595067
533.125	0.0001585655
533.75	0.0001592516
534.375	0.0001607895
535	0.0001551618
535.625	0.0001515469
536.25	0.0001570639
536.875	0.000159164
537.5	0.0001564198
538.125	0.000154598
538.75	0.0001501816
539.375	0.0001521217
540	0.0001572446
540.625	0.0001544892
541.25	0.0001512951
541.875	0.0001535567
542.5	0.0001505623
543.125	0.0001500546
543.75	0.0001536361
544.375	0.0001517
545	0.0001498965
545.625	0.0001517339
546.25	0.0001492859
546.875	0.00014922
547.5	0.0001481632
548.125	0.0001455176
548.75	0.000148596
549.375	0.000150368
550	0.0001418331
550.625	0.0001405612
551.25	0.0001422845
551.875	0.0001444139
552.5	0.0001427156
553.125	0.0001403239
553.75	0.0001338365
554.375	0.0001385775
555	0.0001387359
555.625	0.0001352837
556.25	0.00013584
556.875	0.0001372224
557.5	0.0001321125
558.125	0.0001331318
558.75	0.0001321047
559.375	0.0001303089
560	0.0001312431
560.625	0.000131101
561.25	0.0001298766
561.875	0.0001298676
562.5	0.0001285961
563.125	0.0001264668
563.75	0.0001324523
564.375	0.0001337329
565	0.0001289852
565.625	0.00012614
566.25	0.0001265099
566.875	0.000130751
567.5	0.0001338101
568.125	0.0001275672
568.75	0.0001243705
569.375	0.0001294429
570	0.0001286963
570.625	0.0001240485
571.25	0.0001252421
571.875	0.0001265471
572.5	0.0001263369
573.125	0.000124618
573.75	0.0001215483
574.375	0.0001203835
575	0.000124807
575.625	0.0001213614
576.25	0.0001193054
576.875	0.0001198914
577.5	0.0001159299
578.125	0.0001114992
578.75	0.000115173
579.375	0.0001162035
580	0.0001139732
580.625	0.0001077464
581.25	0.0001063147
581.875	0.0001083198
582.5	0.0001114757
583.125	0.0001057987
583.75	0.0001036381
584.375	0.0001073358
585	0.0001070991
585.625	0.0001025793
586.25	0.0001026636
586.875	0.0001027202
587.5	0.0001070618
588.125	0.000105198
588.75	0.0001005426
589.375	9.888036e-5
590	0.0001056387
590.625	0.0001046981
591.25	0.0001042712
591.875	0.0001047331
592.5	0.0001031606
593.125	0.0001010841
593.75	0.0001056987
594.375	0.0001068277
595	0.0001063459
595.625	0.0001052373
596.25	0.0001012874
596.875	0.0001027743
597.5	0.0001053256
598.125	0.0001019637
598.75	9.873337e-5
599.375	0.0001021828
600	0.0001011046
600.625	9.74302e-5
601.25	9.531571e-5
601.875	9.429548e-5
602.5	9.583111e-5
603.125	9.757985e-5
603.75	8.872856e-5
604.375	8.576993e-5
605	8.729716e-5
605.625	8.478709e-5
606.25	8.33353e-5
606.875	8.239018e-5
607.5	7.534089e-5
608.125	7.379172e-5
608.75	7.421846e-5
609.375	6.993779e-5
610	7.013224e-5
610.625	7.104289e-5
611.25	6.395749e-5
611.875	6.593347e-5
612.5	6.663817e-5
613.125	6.117504e-5
613.75	6.228447e-5
614.375	6.727757e-5
615	6.380136e-5
615.625	6.399245e-5
616.25	6.102594e-5
616.875	6.287787e-5
617.5	7.11164e-5
618.125	7.197759e-5
618.75	6.580173e-5
619.375	7.028749e-5
620	7.344387e-5
620.625	7.49018e-5
621.25	7.975231e-5
621.875	8.051444e-5
622.5	7.932033e-5
623.125	8.400774e-5
623.75	8.402367e-5
624.375	8.523098e-5
625	9.121907e-5
625.625	8.915792e-5
626.25	8.925956e-5
626.875	9.52465e-5
627.5	9.353179e-5
628.125	8.939178e-5
628.75	9.52659e-5
629.375	9.861781e-5
630	9.845493e-5
630.625	9.798915e-5
631.25	9.422675e-5
631.875	9.499251e-5
632.5	0.0001033878
633.125	0.0001010951
633.75	9.777095e-5
634.375	9.766439e-5
635	9.838511e-5
635.625	9.744203e-5
636.25	9.986362e-5
636.875	9.677105e-5
637.5	9.956969e-5
638.125	0.0001000925
638.75	9.661488e-5
639.375	9.488491e-5
640	9.984696e-5
640.625	9.850623e-5
641.25	9.947184e-5
641.875	0.0001014981
642.5	0.0001007877
643.125	9.816241e-5
643.75	0.0001004411
644.375	0.0001013046
645	0.0001053753
645.625	0.0001049766
646.25	9.868809e-5
646.875	9.94666e-5
647.5	0.0001082378
648.125	0.0001087288
648.75	0.0001055479
649.375	0.0001062712
650	0.0001091915
650.625	0.0001094239
651.25	0.0001109299
651.875	0.0001074997
652.5	0.0001115471
