Source File Name:	Analyzer
Signal:	FFT - Vib Velocity - Magnitude

Frequency	Magnitude
[ Hz ]	[ m/s ]
20	0.0007777462
20.625	0.0006517554
21.25	0.0005477908
21.875	0.0004714005
22.5	0.0004073971
23.125	0.0003533657
23.75	0.000333775
24.375	0.0002990248
25	0.000271471
25.625	0.0002509486
26.25	0.0002434678
26.875	0.0002465386
27.5	0.0002617662
28.125	0.0002857825
28.75	0.0003124954
29.375	0.0003423802
30	0.0003681334
30.625	0.0003918987
31.25	0.0003995092
31.875	0.0004019466
32.5	0.0003893194
33.125	0.0003715376
33.75	0.0003612941
34.375	0.0003463302
35	0.0003416418
35.625	0.0003359927
36.25	0.000334492
36.875	0.0003299389
37.5	0.0003315082
38.125	0.0003280424
38.75	0.0003315724
39.375	0.0003308163
40	0.0003330231
40.625	0.0003327258
41.25	0.0003332706
41.875	0.0003305764
42.5	0.000328896
43.125	0.0003298733
43.75	0.0003264945
44.375	0.0003318774
45	0.000334242
45.625	0.000338297
46.25	0.0003367765
46.875	0.0003416527
47.5	0.000341181
48.125	0.0003483735
48.75	0.0003526761
49.375	0.0003608954
50	0.0003705155
50.625	0.0003760507
51.25	0.0003826903
51.875	0.0003936979
52.5	0.0004007631
53.125	0.0004098039
53.75	0.0004139038
54.375	0.000425296
55	0.0004265583
55.625	0.0004332
56.25	0.0004387793
56.875	0.0004382588
57.5	0.0004384456
58.125	0.0004386056
58.75	0.0004416127
59.375	0.0004314819
60	0.0004386785
60.625	0.0004327481
61.25	0.0004304035
61.875	0.0004203164
62.5	0.0004213402
63.125	0.0004167373
63.75	0.0004116311
64.375	0.0004115968
65	0.0004092341
65.625	0.0004085819
66.25	0.0004089427
66.875	0.0004125432
67.5	0.0004099082
68.125	0.0004156915
68.75	0.0004153321
69.375	0.0004203899
70	0.0004253369
70.625	0.0004329756
71.25	0.0004368257
71.875	0.0004448306
72.5	0.0004468491
73.125	0.0004524663
73.75	0.00045851
74.375	0.0004581398
75	0.000465393
75.625	0.0004623183
76.25	0.0004637279
76.875	0.0004637492
77.5	0.0004644332
78.125	0.0004602866
78.75	0.0004599758
79.375	0.0004560305
80	0.0004534196
80.625	0.0004432595
81.25	0.0004385159
81.875	0.0004308932
82.5	0.0004234097
83.125	0.0004152697
83.75	0.0004093543
84.375	0.0004035785
85	0.0003980789
85.625	0.0003953171
86.25	0.0003914373
86.875	0.0003947378
87.5	0.0003942761
88.125	0.0003999834
88.75	0.0003982392
89.375	0.0004018068
90	0.0004044827
90.625	0.0004071422
91.25	0.0004091847
91.875	0.0004128474
92.5	0.0004098186
93.125	0.0004138736
93.75	0.0004115601
94.375	0.0004111984
95	0.0004117291
95.625	0.0004117316
96.25	0.0004115729
96.875	0.000408707
97.5	0.0004066801
98.125	0.0004015805
98.75	0.0003993778
99.375	0.0003923619
100	0.0003910193
100.625	0.0003821939
101.25	0.0003755343
101.875	0.0003689179
102.5	0.0003618563
103.125	0.0003563599
103.75	0.0003511924
104.375	0.0003446001
105	0.0003412908
105.625	0.0003368955
106.25	0.0003348045
106.875	0.00033575
107.5	0.0003304471
108.125	0.0003360466
108.75	0.0003341015
109.375	0.0003363204
110	0.0003379371
110.625	0.0003443418
111.25	0.0003445487
111.875	0.0003525426
112.5	0.0003543468
113.125	0.000362261
113.75	0.0003651081
114.375	0.0003704423
115	0.0003771889
115.625	0.0003793476
116.25	0.0003851911
116.875	0.0003903994
117.5	0.0003930906
118.125	0.0003936412
118.75	0.0003955515
119.375	0.0003940405
120	0.000395765
120.625	0.0003904381
121.25	0.0003935608
121.875	0.0003920808
122.5	0.0003908118
123.125	0.0003908482
123.75	0.0003909742
124.375	0.0003895812
125	0.0003940691
125.625	0.000399018
126.25	0.0004025294
126.875	0.0004096445
127.5	0.0004122779
128.125	0.000421106
128.75	0.0004261654
129.375	0.0004361945
130	0.0004457252
130.625	0.0004584634
131.25	0.0004687908
131.875	0.0004828192
132.5	0.0004958735
133.125	0.0005102687
133.75	0.0005242607
134.375	0.0005411014
135	0.0005609616
135.625	0.0005770581
136.25	0.0005987522
136.875	0.0006157779
137.5	0.000637339
138.125	0.0006571584
138.75	0.0006796417
139.375	0.000697706
140	0.0007214806
140.625	0.0007380366
141.25	0.0007622427
141.875	0.0007825951
142.5	0.0008009616
143.125	0.0008224362
143.75	0.000841549
144.375	0.0008652698
145	0.0008828993
145.625	0.0009064805
146.25	0.0009262062
146.875	0.0009466139
147.5	0.0009653487
148.125	0.0009828971
148.75	0.0009933226
149.375	0.001005176
150	0.001007281
150.625	0.001005227
151.25	0.0009969906
151.875	0.0009747697
152.5	0.000951239
153.125	0.000916544
153.75	0.0008787378
154.375	0.000832545
155	0.0007893897
155.625	0.0007451161
156.25	0.0007016097
156.875	0.0006612232
157.5	0.0006222995
158.125	0.0005873404
158.75	0.0005553869
159.375	0.000530755
160	0.0005032404
160.625	0.0004837458
161.25	0.0004606179
161.875	0.0004441241
162.5	0.0004234939
163.125	0.0004035668
163.75	0.000382299
164.375	0.0003644634
165	0.0003427815
165.625	0.0003232334
166.25	0.0002982682
166.875	0.0002738677
167.5	0.0002512904
168.125	0.0002248904
168.75	0.0002076887
169.375	0.0001887659
170	0.0001834444
170.625	0.0001851313
171.25	0.0001966885
171.875	0.0002123523
172.5	0.0002359471
173.125	0.0002532038
173.75	0.0002757078
174.375	0.0002903713
175	0.0003044054
175.625	0.0003176522
176.25	0.000327795
176.875	0.0003338096
177.5	0.0003433848
178.125	0.0003480204
178.75	0.0003547205
179.375	0.0003609908
180	0.0003632125
180.625	0.0003718869
181.25	0.0003744113
181.875	0.0003807174
182.5	0.0003830974
183.125	0.0003857182
183.75	0.0003859697
184.375	0.0003904402
185	0.0003897343
185.625	0.0003893595
186.25	0.0003841016
186.875	0.0003814424
187.5	0.000375058
188.125	0.0003658579
188.75	0.0003568505
189.375	0.0003415875
190	0.000328199
190.625	0.0003110637
191.25	0.0002931276
191.875	0.00026905
192.5	0.0002487684
193.125	0.0002243453
193.75	0.0002072142
194.375	0.0001860792
195	0.0001704692
195.625	0.0001607291
196.25	0.0001559301
196.875	0.0001543635
197.5	0.0001625373
198.125	0.0001662425
198.75	0.0001779115
199.375	0.0001901178
200	0.0001997984
200.625	0.0002112291
201.25	0.0002220918
201.875	0.0002326845
202.5	0.0002423449
203.125	0.000251343
203.75	0.0002574157
204.375	0.0002668254
205	0.0002694198
205.625	0.0002782272
206.25	0.0002822925
206.875	0.0002880146
207.5	0.0002882933
208.125	0.0002894752
208.75	0.0002871858
209.375	0.0002864472
210	0.0002827162
210.625	0.0002809612
211.25	0.0002765409
211.875	0.0002710368
212.5	0.0002687404
213.125	0.0002632227
213.75	0.0002626921
214.375	0.0002600582
215	0.0002626756
215.625	0.000267655
216.25	0.0002739979
216.875	0.0002756717
217.5	0.0002855838
218.125	0.000289381
218.75	0.0002986763
219.375	0.0003059531
220	0.0003135545
220.625	0.0003194512
221.25	0.0003272534
221.875	0.0003316056
222.5	0.0003373309
223.125	0.0003415785
223.75	0.0003457099
224.375	0.0003550345
225	0.0003586893
225.625	0.0003661414
226.25	0.0003691343
226.875	0.0003742134
227.5	0.0003739414
228.125	0.0003781355
228.75	0.0003801363
229.375	0.0003810709
230	0.0003789053
230.625	0.0003801456
231.25	0.0003754793
231.875	0.0003766274
232.5	0.0003763926
233.125	0.0003737374
233.75	0.0003754122
234.375	0.0003736302
235	0.0003752999
235.625	0.0003770129
236.25	0.0003768629
236.875	0.0003754909
237.5	0.0003815986
238.125	0.0003780811
238.75	0.0003819962
239.375	0.0003815203
240	0.0003827785
240.625	0.0003854197
241.25	0.0003876635
241.875	0.0003886645
242.5	0.0003898628
243.125	0.0003914466
243.75	0.0003937735
244.375	0.0003988957
245	0.0003988098
245.625	0.0004022932
246.25	0.0004011066
246.875	0.0004057501
247.5	0.0004042156
248.125	0.0004057391
248.75	0.0004048079
249.375	0.000403004
250	0.0003980364
250.625	0.0003970001
251.25	0.0003897254
251.875	0.0003854902
252.5	0.0003812711
253.125	0.0003733292
253.75	0.000371035
254.375	0.0003626914
255	0.0003585909
255.625	0.0003550595
256.25	0.0003517214
256.875	0.0003472017
257.5	0.0003477895
258.125	0.0003435914
258.75	0.0003455118
259.375	0.000343597
260	0.0003443195
260.625	0.0003458794
261.25	0.0003464904
261.875	0.0003504748
262.5	0.0003531234
263.125	0.0003560525
263.75	0.0003599548
264.375	0.0003663766
265	0.0003688551
265.625	0.0003766384
266.25	0.0003765767
266.875	0.0003848065
267.5	0.0003867738
268.125	0.0003895277
268.75	0.0003896283
269.375	0.0003896876
270	0.0003862296
270.625	0.0003858578
271.25	0.0003800229
271.875	0.0003754754
272.5	0.0003693059
273.125	0.0003629321
273.75	0.0003587847
274.375	0.0003513958
275	0.0003454793
275.625	0.000338551
276.25	0.0003346255
276.875	0.0003301215
277.5	0.0003293603
278.125	0.0003238501
278.75	0.0003240854
279.375	0.0003196862
280	0.0003218384
280.625	0.000321631
281.25	0.0003218257
281.875	0.0003242333
282.5	0.0003278029
283.125	0.0003291397
283.75	0.0003327037
284.375	0.0003339559
285	0.0003353439
285.625	0.0003401127
286.25	0.0003373835
286.875	0.0003382155
287.5	0.0003332946
288.125	0.0003290614
288.75	0.000324188
289.375	0.0003197045
290	0.00030867
290.625	0.0003039647
291.25	0.0002931194
291.875	0.0002865716
292.5	0.0002776938
293.125	0.0002694999
293.75	0.0002618867
294.375	0.0002530877
295	0.0002455111
295.625	0.0002374772
296.25	0.0002320408
296.875	0.0002258406
297.5	0.0002231338
298.125	0.0002159895
298.75	0.0002160818
299.375	0.0002141805
300	0.0002180566
300.625	0.0002187882
301.25	0.000224267
301.875	0.0002281278
302.5	0.0002358247
303.125	0.0002376671
303.75	0.0002470054
304.375	0.0002513151
305	0.0002581729
305.625	0.0002622436
306.25	0.0002641009
306.875	0.0002632914
307.5	0.0002646259
308.125	0.0002627443
308.75	0.0002605849
309.375	0.0002574157
310	0.0002506913
310.625	0.0002496732
311.25	0.0002420077
311.875	0.0002391314
312.5	0.0002359185
313.125	0.0002347909
313.75	0.0002320788
314.375	0.0002334031
315	0.0002315375
315.625	0.0002354858
316.25	0.0002364441
316.875	0.0002411104
317.5	0.0002448758
318.125	0.000248297
318.75	0.0002515547
319.375	0.0002554088
320	0.00025865
320.625	0.0002637841
321.25	0.0002691067
321.875	0.0002717108
322.5	0.0002764221
323.125	0.0002739783
323.75	0.0002779935
324.375	0.0002755506
325	0.0002760839
325.625	0.0002732795
326.25	0.0002710399
326.875	0.00026508
327.5	0.0002631218
328.125	0.0002550317
328.75	0.0002505197
329.375	0.0002462522
330	0.0002410866
330.625	0.0002395949
331.25	0.0002339067
331.875	0.0002283316
332.5	0.0002245628
333.125	0.0002211565
333.75	0.0002167695
334.375	0.0002168048
335	0.0002102266
335.625	0.0002127533
336.25	0.0002117693
336.875	0.0002145628
337.5	0.0002139788
338.125	0.0002187624
338.75	0.0002209325
339.375	0.0002267949
340	0.000227956
340.625	0.0002326091
341.25	0.0002340378
341.875	0.0002347433
342.5	0.000234614
343.125	0.0002308076
343.75	0.0002275323
344.375	0.000220842
345	0.0002147578
345.625	0.0002063681
346.25	0.0001970559
346.875	0.0001863947
347.5	0.0001811222
348.125	0.000167846
348.75	0.0001619715
349.375	0.0001545903
350	0.0001471976
350.625	0.0001413848
351.25	0.0001364654
351.875	0.0001302589
352.5	0.000128557
353.125	0.0001240658
353.75	0.0001206039
354.375	0.0001205382
355	0.0001180289
355.625	0.0001219618
356.25	0.0001234078
356.875	0.0001241376
357.5	0.0001258502
358.125	0.0001298708
358.75	0.000127812
359.375	0.0001318285
360	0.0001293699
360.625	0.000131269
361.25	0.0001287785
361.875	0.0001279651
362.5	0.000124133
363.125	0.0001207156
363.75	0.0001158545
364.375	0.000112894
365	0.0001078645
365.625	0.0001036465
366.25	9.83827e-5
366.875	9.173419e-5
367.5	8.79539e-5
368.125	8.144818e-5
368.75	7.968922e-5
369.375	7.604887e-5
370	7.500678e-5
370.625	7.454817e-5
371.25	7.825121e-5
371.875	7.832976e-5
372.5	8.669043e-5
373.125	9.091331e-5
373.75	9.967689e-5
374.375	0.0001058409
375	0.000112801
375.625	0.0001148759
376.25	0.0001217112
376.875	0.000120956
377.5	0.0001255346
378.125	0.0001241813
378.75	0.0001208844
379.375	0.0001197597
380	0.0001151741
380.625	0.0001109344
381.25	0.0001071992
381.875	0.0001014575
382.5	9.513381e-5
383.125	9.39587e-5
383.75	8.711757e-5
384.375	8.735868e-5
385	8.460567e-5
385.625	8.572973e-5
386.25	8.740291e-5
386.875	9.121672e-5
387.5	9.181494e-5
388.125	9.814174e-5
388.75	9.931824e-5
389.375	0.0001055421
390	0.0001098149
390.625	0.000114224
391.25	0.0001180683
391.875	0.0001246245
392.5	0.000127434
393.125	0.0001332892
393.75	0.0001375741
394.375	0.0001425537
395	0.0001474782
395.625	0.000147611
396.25	0.0001514451
396.875	0.0001488655
397.5	0.0001488369
398.125	0.0001455988
398.75	0.0001442326
399.375	0.000140441
400	0.0001386743
400.625	0.0001311074
401.25	0.0001309623
401.875	0.0001269651
402.5	0.0001281373
403.125	0.0001298108
403.75	0.0001313819
404.375	0.000133472
405	0.0001407608
405.625	0.0001462382
406.25	0.0001535382
406.875	0.0001617828
407.5	0.0001665009
408.125	0.0001767901
408.75	0.0001822817
409.375	0.0001893433
410	0.0001951089
410.625	0.0002019926
411.25	0.0002055063
411.875	0.0002119892
412.5	0.0002113272
413.125	0.0002150457
413.75	0.0002141098
414.375	0.0002152779
415	0.0002137429
415.625	0.0002110502
416.25	0.0002074291
416.875	0.0002052244
417.5	0.0002025874
418.125	0.0002017088
418.75	0.0001998297
419.375	0.0001990227
420	0.0002023825
420.625	0.0002025208
421.25	0.0002077793
421.875	0.0002091127
422.5	0.0002131147
423.125	0.000216856
423.75	0.0002231854
424.375	0.0002252691
425	0.0002335287
425.625	0.0002349544
426.25	0.000242075
426.875	0.0002463941
427.5	0.0002517844
428.125	0.0002578856
428.75	0.0002643465
429.375	0.000266885
430	0.0002723474
430.625	0.0002743342
431.25	0.0002746009
431.875	0.00027763
432.5	0.0002749161
433.125	0.0002757589
433.75	0.0002724229
434.375	0.0002696031
435	0.0002647357
435.625	0.0002612309
436.25	0.0002553266
436.875	0.0002554634
437.5	0.0002506287
438.125	0.0002497995
438.75	0.0002485983
439.375	0.0002504756
440	0.0002527839
440.625	0.0002561486
441.25	0.0002602974
441.875	0.0002668203
442.5	0.0002719474
443.125	0.0002780081
443.75	0.0002846524
444.375	0.000287111
445	0.0002950369
445.625	0.0002986055
446.25	0.0003048413
446.875	0.000307702
447.5	0.0003103374
448.125	0.0003104042
448.75	0.0003145821
449.375	0.0003126416
450	0.0003154387
450.625	0.000312245
451.25	0.0003097105
451.875	0.0003080197
452.5	0.0003047141
453.125	0.0003001484
453.75	0.0002989997
454.375	0.0002960619
455	0.0002949384
455.625	0.0002950238
456.25	0.0002926769
456.875	0.0002960388
457.5	0.0002964404
458.125	0.0003013718
458.75	0.0003050875
459.375	0.0003097881
460	0.0003119402
460.625	0.0003194519
461.25	0.0003216115
461.875	0.000328938
462.5	0.0003312549
463.125	0.000337595
463.75	0.0003417899
464.375	0.0003463645
465	0.0003513194
465.625	0.0003555473
466.25	0.0003567777
466.875	0.0003603769
467.5	0.0003612663
468.125	0.0003607296
468.75	0.0003609938
469.375	0.0003543725
470	0.0003519353
470.625	0.0003455992
471.25	0.000340347
471.875	0.0003350806
472.5	0.0003310303
473.125	0.0003245521
473.75	0.0003251948
474.375	0.0003199811
475	0.0003206791
475.625	0.000322303
476.25	0.0003227789
476.875	0.0003265553
477.5	0.0003303334
478.125	0.0003317301
478.75	0.0003350816
479.375	0.0003383268
480	0.0003403932
480.625	0.0003453313
481.25	0.0003441405
481.875	0.000346893
482.5	0.0003469987
483.125	0.0003482035
483.75	0.000347465
484.375	0.0003485594
485	0.0003444933
485.625	0.0003439853
486.25	0.0003372991
486.875	0.0003356801
487.5	0.0003286873
488.125	0.0003233489
488.75	0.0003179566
489.375	0.0003098339
490	0.0003040764
490.625	0.0002975706
491.25	0.0002910937
491.875	0.0002867231
492.5	0.0002846682
493.125	0.0002792154
493.75	0.0002807801
494.375	0.0002756178
495	0.000275319
495.625	0.0002747363
496.25	0.0002757058
496.875	0.0002761543
497.5	0.0002793834
498.125	0.0002762005
498.75	0.0002818378
499.375	0.0002827788
500	0.000283542
500.625	0.0002849718
501.25	0.0002853791
501.875	0.0002862613
502.5	0.0002870266
503.125	0.0002842808
503.75	0.0002817996
504.375	0.0002790716
505	0.0002723381
505.625	0.0002700095
506.25	0.0002616894
506.875	0.0002562451
507.5	0.0002480321
508.125	0.0002426625
508.75	0.0002359308
509.375	0.0002297485
510	0.0002223348
510.625	0.0002210203
511.25	0.0002170519
511.875	0.0002183842
512.5	0.0002181502
513.125	0.0002184442
513.75	0.0002209234
514.375	0.0002221367
515	0.0002238726
515.625	0.000227075
516.25	0.0002283419
516.875	0.0002274845
517.5	0.0002310241
518.125	0.0002264218
518.75	0.0002297789
519.375	0.0002261764
520	0.0002255976
520.625	0.0002248822
521.25	0.0002237455
521.875	0.0002188359
522.5	0.000218558
523.125	0.0002128267
523.75	0.0002096618
524.375	0.0002058422
525	0.0001984198
525.625	0.0001926201
526.25	0.0001833738
526.875	0.0001763375
527.5	0.0001695051
528.125	0.0001629099
528.75	0.0001553768
529.375	0.0001511224
530	0.0001439798
530.625	0.0001444806
531.25	0.0001399106
531.875	0.0001406445
532.5	0.0001390008
533.125	0.000140032
533.75	0.0001398873
534.375	0.0001412686
535	0.0001393722
535.625	0.0001417734
536.25	0.0001408424
536.875	0.0001410978
537.5	0.0001434658
538.125	0.0001402002
538.75	0.0001415947
539.375	0.0001395408
540	0.0001371997
540.625	0.0001351208
541.25	0.0001319063
541.875	0.0001254378
542.5	0.0001236201
543.125	0.0001143672
543.75	0.0001097519
544.375	0.0001025873
545	9.424985e-5
545.625	8.811383e-5
546.25	8.147031e-5
546.875	7.66212e-5
547.5	7.263038e-5
548.125	6.768143e-5
548.75	6.453565e-5
549.375	6.51883e-5
550	6.215396e-5
550.625	6.4592e-5
551.25	6.22815e-5
551.875	6.432114e-5
552.5	6.521826e-5
553.125	6.692651e-5
553.75	6.687403e-5
554.375	6.985106e-5
555	6.747212e-5
555.625	7.31933e-5
556.25	7.296885e-5
556.875	7.472486e-5
557.5	7.700889e-5
558.125	7.704544e-5
558.75	7.933201e-5
559.375	8.138514e-5
560	8.080475e-5
560.625	8.119133e-5
561.25	8.074036e-5
561.875	7.790433e-5
562.5	7.980181e-5
563.125	7.421212e-5
563.75	7.334178e-5
564.375	6.859191e-5
565	6.472732e-5
565.625	6.10841e-5
566.25	5.555464e-5
566.875	5.134219e-5
567.5	4.841154e-5
568.125	4.552699e-5
568.75	4.499351e-5
569.375	4.498358e-5
570	4.278156e-5
570.625	4.719234e-5
571.25	4.846132e-5
571.875	5.316905e-5
572.5	5.749331e-5
573.125	6.114245e-5
573.75	6.351542e-5
574.375	6.932137e-5
575	6.987865e-5
575.625	7.754038e-5
576.25	7.886514e-5
576.875	8.214657e-5
577.5	8.511604e-5
578.125	8.54733e-5
578.75	8.675086e-5
579.375	8.879041e-5
580	8.773981e-5
580.625	8.770057e-5
581.25	8.714997e-5
581.875	8.477692e-5
582.5	8.48831e-5
583.125	7.85415e-5
583.75	7.904728e-5
584.375	7.422654e-5
585	7.245588e-5
585.625	6.828085e-5
586.25	6.51295e-5
586.875	6.113006e-5
587.5	6.109743e-5
588.125	5.707458e-5
588.75	5.809865e-5
589.375	5.619622e-5
590	5.398747e-5
590.625	5.640007e-5
591.25	5.518156e-5
591.875	5.610027e-5
592.5	5.679315e-5
593.125	5.759563e-5
593.75	6.028483e-5
594.375	6.487031e-5
595	6.478814e-5
595.625	6.99329e-5
596.25	7.082472e-5
596.875	7.364458e-5
597.5	7.679847e-5
598.125	7.84313e-5
598.75	7.782828e-5
599.375	7.821772e-5
600	7.436793e-5
600.625	7.297737e-5
601.25	6.821581e-5
601.875	6.286053e-5
602.5	5.957603e-5
603.125	5.180243e-5
603.75	4.900545e-5
604.375	4.040922e-5
605	3.600743e-5
605.625	2.927764e-5
606.25	2.390801e-5
606.875	1.930327e-5
607.5	1.880929e-5
608.125	1.268945e-5
608.75	1.346701e-5
609.375	1.09657e-5
610	1.114844e-5
610.625	1.178012e-5
611.25	1.383868e-5
611.875	1.261223e-5
612.5	1.71781e-5
613.125	1.649648e-5
613.75	1.760658e-5
614.375	1.868543e-5
615	1.642203e-5
615.625	1.89748e-5
616.25	1.810409e-5
616.875	1.722379e-5
617.5	1.670127e-5
618.125	1.557931e-5
618.75	1.468413e-5
619.375	1.459769e-5
620	1.560388e-5
620.625	1.729168e-5
621.25	1.806694e-5
621.875	2.142104e-5
622.5	2.439006e-5
623.125	2.549725e-5
623.75	3.199446e-5
624.375	3.178574e-5
625	3.641203e-5
625.625	3.79034e-5
626.25	3.918421e-5
626.875	4.20528e-5
627.5	4.13447e-5
628.125	4.390119e-5
628.75	4.188686e-5
629.375	4.180936e-5
630	4.005159e-5
630.625	3.867421e-5
631.25	3.476919e-5
631.875	3.361578e-5
632.5	2.686425e-5
633.125	2.806317e-5
633.75	2.520443e-5
634.375	2.397211e-5
635	2.580699e-5
635.625	2.982155e-5
636.25	3.426443e-5
636.875	4.225108e-5
637.5	4.72106e-5
638.125	5.411481e-5
638.75	6.152436e-5
639.375	6.517421e-5
640	7.358781e-5
640.625	7.847414e-5
641.25	8.09724e-5
641.875	8.493306e-5
642.5	8.804419e-5
643.125	8.799473e-5
643.75	9.235276e-5
644.375	8.932221e-5
645	9.285325e-5
645.625	9.254339e-5
646.25	9.233686e-5
646.875	9.243722e-5
647.5	9.312249e-5
648.125	9.165172e-5
648.75	9.539873e-5
649.375	9.481191e-5
650	9.530823e-5
650.625	9.582913e-5
651.25	9.466837e-5
651.875	9.719282e-5
652.5	9.747763e-5
653.125	9.935525e-5
653.75	0.0001009238
654.375	0.000104814
655	0.0001080843
