Source File Name:	Analyzer
Signal:	FFT - Vib Velocity - Magnitude

Frequency	Magnitude
[ Hz ]	[ m/s ]
20	0.0007910399
20.625	0.0007017007
21.25	0.0006317066
21.875	0.0005743229
22.5	0.0005218229
23.125	0.0004941526
23.75	0.0004539403
24.375	0.0004435492
25	0.0004088414
25.625	0.0004045449
26.25	0.0003862137
26.875	0.0003674798
27.5	0.0003604084
28.125	0.0003685593
28.75	0.0003890209
29.375	0.000412199
30	0.0004481232
30.625	0.0004857499
31.25	0.0005279111
31.875	0.0005530255
32.5	0.0005618396
33.125	0.0005624942
33.75	0.0005475671
34.375	0.0005480279
35	0.0005431323
35.625	0.0005431526
36.25	0.0005355898
36.875	0.0005283923
37.5	0.000517996
38.125	0.0005147925
38.75	0.0005115772
39.375	0.0005072101
40	0.0005020268
40.625	0.0004867204
41.25	0.0004890762
41.875	0.0004839188
42.5	0.0004922041
43.125	0.0004838939
43.75	0.0004846316
44.375	0.0004823498
45	0.0004816618
45.625	0.0004864202
46.25	0.0004875895
46.875	0.0004847519
47.5	0.0004771892
48.125	0.0004792513
48.75	0.0004734653
49.375	0.0004795882
50	0.0004705853
50.625	0.0004660715
51.25	0.0004509822
51.875	0.0004464776
52.5	0.0004400404
53.125	0.0004346131
53.75	0.0004334041
54.375	0.0004250796
55	0.0004262309
55.625	0.0004199058
56.25	0.0004296823
56.875	0.000418901
57.5	0.0004273882
58.125	0.0004115685
58.75	0.0004195794
59.375	0.00041383
60	0.000407506
60.625	0.0003962215
61.25	0.0003848616
61.875	0.0003785229
62.5	0.0003778056
63.125	0.0003747205
63.75	0.0003743165
64.375	0.0003654133
65	0.0003539484
65.625	0.0003512629
66.25	0.0003486256
66.875	0.0003509388
67.5	0.0003478304
68.125	0.0003396177
68.75	0.0003406111
69.375	0.000334943
70	0.0003343488
70.625	0.0003358534
71.25	0.0003310019
71.875	0.0003223471
72.5	0.0003103623
73.125	0.0003043221
73.75	0.0002958535
74.375	0.0002932156
75	0.0002820555
75.625	0.0002703812
76.25	0.0002591236
76.875	0.0002662342
77.5	0.0002641401
78.125	0.0002567091
78.75	0.0002576691
79.375	0.0002504943
80	0.0002541319
80.625	0.0002493399
81.25	0.0002479877
81.875	0.0002401023
82.5	0.0002298522
83.125	0.0002211449
83.75	0.0002089191
84.375	0.0002096801
85	0.0002057843
85.625	0.0001959695
86.25	0.0001801616
86.875	0.000184854
87.5	0.0001699403
88.125	0.0001756372
88.75	0.0001687295
89.375	0.0001637798
90	0.000156693
90.625	0.0001588718
91.25	0.0001623072
91.875	0.0001582416
92.5	0.0001575039
93.125	0.000153741
93.75	0.000151246
94.375	0.000144486
95	0.0001544025
95.625	0.0001448218
96.25	0.0001448004
96.875	0.0001428419
97.5	0.0001291262
98.125	0.0001300848
98.75	0.0001306763
99.375	0.0001321083
100	0.0001371232
100.625	0.0001377096
101.25	0.0001405117
101.875	0.0001516344
102.5	0.0001588621
103.125	0.0001657
103.75	0.0001725716
104.375	0.0001779143
105	0.0001869704
105.625	0.0001852607
106.25	0.0002012727
106.875	0.0002064583
107.5	0.0002052249
108.125	0.0002156147
108.75	0.0002119732
109.375	0.0002260459
110	0.000230418
110.625	0.0002383245
111.25	0.0002395822
111.875	0.0002465273
112.5	0.0002549894
113.125	0.0002634664
113.75	0.0002701627
114.375	0.0002829871
115	0.0002939839
115.625	0.00029957
116.25	0.0003197381
116.875	0.0003245407
117.5	0.0003449743
118.125	0.0003486648
118.75	0.0003603722
119.375	0.00036371
120	0.0003717877
120.625	0.0003789915
121.25	0.0003812496
121.875	0.0003867978
122.5	0.0003919065
123.125	0.0004070643
123.75	0.0004120763
124.375	0.0004317651
125	0.0004370124
125.625	0.0004578163
126.25	0.0004683765
126.875	0.0004830163
127.5	0.0004930471
128.125	0.0005069666
128.75	0.0005201343
129.375	0.000531812
130	0.0005417713
130.625	0.0005503168
131.25	0.0005688905
131.875	0.0005741068
132.5	0.0005845701
133.125	0.000595784
133.75	0.0006053024
134.375	0.0006216543
135	0.0006338867
135.625	0.0006465162
136.25	0.0006604257
136.875	0.0006760797
137.5	0.0006985589
138.125	0.0007158824
138.75	0.0007352858
139.375	0.0007601423
140	0.0007782289
140.625	0.0007967559
141.25	0.0008199578
141.875	0.000828795
142.5	0.0008538984
143.125	0.0008583533
143.75	0.0008694375
144.375	0.0008873148
145	0.0008983134
145.625	0.0009160053
146.25	0.0009155788
146.875	0.0009315637
147.5	0.0009373644
148.125	0.0009465684
148.75	0.0009468791
149.375	0.0009452776
150	0.0009322333
150.625	0.0009254137
151.25	0.0009004335
151.875	0.0008691254
152.5	0.0008373952
153.125	0.000790232
153.75	0.0007481158
154.375	0.0007061494
155	0.0006515628
155.625	0.0006046908
156.25	0.0005649953
156.875	0.0005246808
157.5	0.0004892335
158.125	0.0004583493
158.75	0.0004228214
159.375	0.0003982318
160	0.0003764799
160.625	0.000350965
161.25	0.0003380788
161.875	0.0003140314
162.5	0.0003064243
163.125	0.0002839253
163.75	0.0002796025
164.375	0.000269279
165	0.0002614479
165.625	0.0002577058
166.25	0.0002440579
166.875	0.0002318871
167.5	0.0002201633
168.125	0.0002079125
168.75	0.0001870101
169.375	0.0001714625
170	0.000147575
170.625	0.0001255088
171.25	0.000112821
171.875	0.0001119543
172.5	0.0001126555
173.125	0.0001249814
173.75	0.0001456963
174.375	0.0001628935
175	0.0001849909
175.625	0.0002082748
176.25	0.0002291313
176.875	0.0002396692
177.5	0.0002585962
178.125	0.0002719899
178.75	0.0002859892
179.375	0.0003037483
180	0.0003162981
180.625	0.0003243184
181.25	0.0003307729
181.875	0.0003384806
182.5	0.0003423069
183.125	0.00034627
183.75	0.0003489177
184.375	0.0003450773
185	0.0003422776
185.625	0.0003464194
186.25	0.0003524795
186.875	0.0003505651
187.5	0.0003588573
188.125	0.0003496873
188.75	0.000357351
189.375	0.0003594557
190	0.0003543471
190.625	0.0003558768
191.25	0.000343485
191.875	0.0003407355
192.5	0.0003268381
193.125	0.0003143515
193.75	0.0003042377
194.375	0.0002936229
195	0.0002768877
195.625	0.0002692531
196.25	0.0002562157
196.875	0.0002601806
197.5	0.0002615553
198.125	0.0002515873
198.75	0.0002587139
199.375	0.0002532647
200	0.0002730185
200.625	0.000271332
201.25	0.0002816307
201.875	0.0002863392
202.5	0.0002921128
203.125	0.0002981507
203.75	0.0003011848
204.375	0.0003003422
205	0.0003044132
205.625	0.0003015428
206.25	0.0002979591
206.875	0.0003052297
207.5	0.0002985295
208.125	0.0003144451
208.75	0.0003047941
209.375	0.0003144521
210	0.0003212012
210.625	0.000334205
211.25	0.0003420529
211.875	0.0003412025
212.5	0.000347714
213.125	0.0003518982
213.75	0.0003570921
214.375	0.0003605595
215	0.000369294
215.625	0.0003628572
216.25	0.000375042
216.875	0.0003732897
217.5	0.0003839402
218.125	0.0003892752
218.75	0.0003935272
219.375	0.0003986548
220	0.0004008604
220.625	0.0004178742
221.25	0.0004267892
221.875	0.0004382103
222.5	0.0004429574
223.125	0.0004582444
223.75	0.0004635215
224.375	0.0004859338
225	0.0004918593
225.625	0.0004977417
226.25	0.0005060807
226.875	0.00051107
227.5	0.0005193918
228.125	0.0005251569
228.75	0.0005376226
229.375	0.000535907
230	0.0005436699
230.625	0.0005557268
231.25	0.0005702651
231.875	0.0005792536
232.5	0.0005952261
233.125	0.0006009765
233.75	0.0006062368
234.375	0.0006212759
235	0.0006293923
235.625	0.0006356349
236.25	0.0006377261
236.875	0.0006364313
237.5	0.0006371263
238.125	0.0006399199
238.75	0.0006445504
239.375	0.0006400464
240	0.0006361128
240.625	0.0006326059
241.25	0.0006273867
241.875	0.0006239897
242.5	0.0006267544
243.125	0.0006167194
243.75	0.0006070757
244.375	0.0006122669
245	0.0006038623
245.625	0.0006148306
246.25	0.0006114203
246.875	0.0006098079
247.5	0.0006012541
248.125	0.0006011894
248.75	0.0005989485
249.375	0.0005936028
250	0.0005869063
250.625	0.0005820831
251.25	0.0005702695
251.875	0.0005613441
252.5	0.00056882
253.125	0.0005560191
253.75	0.0005610544
254.375	0.0005465492
255	0.0005474895
255.625	0.0005490853
256.25	0.000554509
256.875	0.0005515725
257.5	0.0005396981
258.125	0.0005357735
258.75	0.0005319361
259.375	0.0005303959
260	0.0005237241
260.625	0.0005226672
261.25	0.0005066767
261.875	0.0005113187
262.5	0.0005016796
263.125	0.0005020129
263.75	0.0004981327
264.375	0.0004896022
265	0.0004829361
265.625	0.0004771065
266.25	0.0004891126
266.875	0.0004878966
267.5	0.0004884141
268.125	0.0004823354
268.75	0.0004838363
269.375	0.0004796809
270	0.0004875396
270.625	0.0004781819
271.25	0.0004698892
271.875	0.0004636369
272.5	0.0004559048
273.125	0.000456044
273.75	0.0004477343
274.375	0.000446856
275	0.0004343642
275.625	0.000431962
276.25	0.0004311757
276.875	0.0004430352
277.5	0.0004444807
278.125	0.0004434159
278.75	0.000434383
279.375	0.0004306335
280	0.0004356308
280.625	0.0004292335
281.25	0.0004282735
281.875	0.0004175117
282.5	0.0004129378
283.125	0.0004120683
283.75	0.0004108435
284.375	0.0004038269
285	0.0003954969
285.625	0.0003842832
286.25	0.0003798903
286.875	0.0003764641
287.5	0.0003781233
288.125	0.0003809129
288.75	0.0003718371
289.375	0.0003687139
290	0.0003657333
290.625	0.0003673549
291.25	0.0003716558
291.875	0.0003600408
292.5	0.0003522799
293.125	0.0003418156
293.75	0.0003386918
294.375	0.0003331215
295	0.0003246302
295.625	0.0003143147
296.25	0.000306245
296.875	0.0003056314
297.5	0.0003127804
298.125	0.0003113972
298.75	0.0003111124
299.375	0.0003126019
300	0.0003068692
300.625	0.000312959
301.25	0.0003139468
301.875	0.0003143542
302.5	0.0003051658
303.125	0.000300341
303.75	0.0003026903
304.375	0.0002998278
305	0.0003024543
305.625	0.0002955891
306.25	0.0002851615
306.875	0.0002818729
307.5	0.0002888088
308.125	0.0002859302
308.75	0.0002884998
309.375	0.0002851477
310	0.0002840786
310.625	0.0002876204
311.25	0.0002922589
311.875	0.0002956279
312.5	0.0002823016
313.125	0.0002835854
313.75	0.0002766738
314.375	0.0002795861
315	0.0002719031
315.625	0.000268948
316.25	0.0002489258
316.875	0.000246665
317.5	0.000246075
318.125	0.0002433458
318.75	0.0002439657
319.375	0.0002428545
320	0.0002431784
320.625	0.0002374832
321.25	0.0002453419
321.875	0.0002414869
322.5	0.0002412583
323.125	0.0002300754
323.75	0.0002271974
324.375	0.0002172706
325	0.0002228909
325.625	0.0002215953
326.25	0.0002033666
326.875	0.0001991449
327.5	0.000190818
328.125	0.0001937904
328.75	0.0001852699
329.375	0.0001874034
330	0.0001772972
330.625	0.000175955
331.25	0.0001770564
331.875	0.0001802557
332.5	0.0001758524
333.125	0.0001754199
333.75	0.000171843
334.375	0.0001591724
335	0.0001658538
335.625	0.0001553579
336.25	0.000154478
336.875	0.0001307229
337.5	0.0001262581
338.125	0.0001181593
338.75	0.0001160425
339.375	0.0001164594
340	0.0001084251
340.625	0.0001034911
341.25	0.00010834
341.875	0.0001087309
342.5	0.0001030621
343.125	0.0001055629
343.75	8.78636e-5
344.375	8.783655e-5
345	7.3541e-5
345.625	8.172186e-5
346.25	7.212627e-5
346.875	5.94113e-5
347.5	5.452526e-5
348.125	4.622098e-5
348.75	5.209458e-5
349.375	4.911222e-5
350	4.605076e-5
350.625	4.204402e-5
351.25	5.289639e-5
351.875	6.000496e-5
352.5	6.542759e-5
353.125	6.087531e-5
353.75	6.623214e-5
354.375	6.361221e-5
355	6.891038e-5
355.625	7.030006e-5
356.25	6.712639e-5
356.875	6.571529e-5
357.5	5.988896e-5
358.125	7.156991e-5
358.75	7.358731e-5
359.375	8.519831e-5
360	8.376917e-5
360.625	9.218642e-5
361.25	0.0001001679
361.875	0.0001097591
362.5	0.0001096831
363.125	0.000108327
363.75	0.0001038705
364.375	0.0001033768
365	0.0001079288
365.625	0.0001065668
366.25	0.0001066738
366.875	0.0001013891
367.5	0.0001060803
368.125	0.0001047674
368.75	0.0001138049
369.375	0.0001170097
370	0.0001175835
370.625	0.0001172717
371.25	0.0001211036
371.875	0.0001306708
372.5	0.0001297821
373.125	0.0001372227
373.75	0.0001283525
374.375	0.0001309891
375	0.0001319236
375.625	0.0001359702
376.25	0.0001285536
376.875	0.000126406
377.5	0.0001189093
378.125	0.0001171309
378.75	0.0001177569
379.375	0.0001218178
380	0.000127983
380.625	0.0001215953
381.25	0.0001356862
381.875	0.0001310871
382.5	0.0001412508
383.125	0.0001396881
383.75	0.0001375169
384.375	0.0001288311
385	0.0001296404
385.625	0.0001302041
386.25	0.0001250742
386.875	0.0001202242
387.5	0.0001157417
388.125	0.0001135772
388.75	0.0001077904
389.375	0.0001190415
390	0.000109899
390.625	0.0001161745
391.25	0.0001127596
391.875	0.0001147807
392.5	0.0001152322
393.125	0.0001158988
393.75	0.0001197533
394.375	0.0001077259
395	0.0001111646
395.625	0.0001110678
396.25	0.0001097045
396.875	0.0001018223
397.5	0.000101803
398.125	8.45496e-5
398.75	8.789308e-5
399.375	8.391623e-5
400	8.474082e-5
400.625	8.396529e-5
401.25	8.371817e-5
401.875	9.101386e-5
402.5	8.378889e-5
403.125	9.673122e-5
403.75	9.405233e-5
404.375	8.960947e-5
405	8.289699e-5
405.625	8.803089e-5
406.25	7.930775e-5
406.875	8.077964e-5
407.5	6.998645e-5
408.125	6.272948e-5
408.75	6.190599e-5
409.375	6.267038e-5
410	6.778918e-5
410.625	5.722823e-5
411.25	6.736896e-5
411.875	6.337602e-5
412.5	6.671411e-5
413.125	6.562769e-5
413.75	7.196642e-5
414.375	6.461079e-5
415	6.403674e-5
415.625	6.263277e-5
416.25	6.047121e-5
416.875	6.295377e-5
417.5	5.697746e-5
418.125	5.30312e-5
418.75	3.960776e-5
419.375	4.797016e-5
420	4.219975e-5
420.625	3.948563e-5
421.25	3.835129e-5
421.875	4.669067e-5
422.5	4.765897e-5
423.125	5.152709e-5
423.75	5.447084e-5
424.375	5.090208e-5
425	5.155898e-5
425.625	4.226965e-5
426.25	4.544558e-5
426.875	3.244756e-5
427.5	3.969207e-5
428.125	2.718259e-5
428.75	2.124091e-5
429.375	2.132369e-5
430	2.554037e-5
430.625	2.567501e-5
431.25	2.23002e-5
431.875	2.593921e-5
432.5	2.857327e-5
433.125	3.100229e-5
433.75	2.809432e-5
434.375	2.973313e-5
435	1.871191e-5
435.625	2.517278e-5
436.25	1.51847e-5
436.875	1.804723e-5
437.5	1.468279e-5
438.125	1.531774e-5
438.75	1.528713e-5
439.375	1.669603e-5
440	2.640239e-5
440.625	2.393783e-5
441.25	3.397249e-5
441.875	3.633665e-5
442.5	4.143023e-5
443.125	4.512807e-5
443.75	4.547454e-5
444.375	4.235128e-5
445	4.151639e-5
445.625	3.623797e-5
446.25	4.048164e-5
446.875	3.682301e-5
447.5	4.37892e-5
448.125	4.598544e-5
448.75	4.539061e-5
449.375	5.881237e-5
450	6.13639e-5
450.625	6.981412e-5
451.25	7.270164e-5
451.875	7.551476e-5
452.5	7.900932e-5
453.125	7.779882e-5
453.75	8.090524e-5
454.375	8.090537e-5
455	7.509156e-5
455.625	8.054e-5
456.25	7.921129e-5
456.875	7.836382e-5
457.5	8.893598e-5
458.125	8.278199e-5
458.75	8.68675e-5
459.375	8.863249e-5
460	9.58858e-5
460.625	0.0001011477
461.25	0.0001035501
461.875	0.0001129628
462.5	0.0001137498
463.125	0.0001187597
463.75	0.0001235611
464.375	0.0001226191
465	0.0001162442
465.625	0.0001233376
466.25	0.0001132634
466.875	0.0001151487
467.5	0.0001150163
468.125	0.0001181106
468.75	0.0001177594
469.375	0.0001203245
470	0.0001273562
470.625	0.0001279153
471.25	0.0001388117
471.875	0.0001413849
472.5	0.0001451955
473.125	0.000142587
473.75	0.0001544529
474.375	0.0001460156
475	0.0001460612
475.625	0.0001461143
476.25	0.000143449
476.875	0.000141873
477.5	0.0001440565
478.125	0.0001477102
478.75	0.0001419624
479.375	0.0001488306
480	0.0001450653
480.625	0.0001453673
481.25	0.0001466266
481.875	0.0001602836
482.5	0.0001559925
483.125	0.0001588256
483.75	0.0001665769
484.375	0.0001661275
485	0.0001711983
485.625	0.000166098
486.25	0.0001659613
486.875	0.0001580961
487.5	0.0001640394
488.125	0.0001574042
488.75	0.000154829
489.375	0.0001513905
490	0.0001574049
490.625	0.0001502637
491.25	0.0001568539
491.875	0.000167377
492.5	0.0001659927
493.125	0.0001774157
493.75	0.0001706988
494.375	0.0001761672
495	0.0001736496
495.625	0.0001808656
496.25	0.000172443
496.875	0.0001668274
497.5	0.0001640632
498.125	0.0001699721
498.75	0.0001633005
499.375	0.0001657049
500	0.000165206
500.625	0.0001578309
501.25	0.0001661342
501.875	0.0001627015
502.5	0.0001674005
503.125	0.0001662761
503.75	0.0001713333
504.375	0.0001710922
505	0.0001746171
505.625	0.0001802488
506.25	0.0001808394
506.875	0.0001750327
507.5	0.0001719218
508.125	0.0001710847
508.75	0.0001646945
509.375	0.0001688989
510	0.0001579912
510.625	0.0001560877
511.25	0.0001527345
511.875	0.000153865
512.5	0.0001563006
513.125	0.0001592101
513.75	0.0001640742
514.375	0.0001642366
515	0.0001677848
515.625	0.000171492
516.25	0.0001735653
516.875	0.0001652129
517.5	0.0001650588
518.125	0.0001543306
518.75	0.0001575028
519.375	0.0001567588
520	0.0001501433
520.625	0.00015011
521.25	0.0001447148
521.875	0.0001425761
522.5	0.0001445026
523.125	0.0001416018
523.75	0.0001453934
524.375	0.0001422833
525	0.0001401672
525.625	0.0001457725
526.25	0.0001449651
526.875	0.0001521056
527.5	0.0001499923
528.125	0.0001403825
528.75	0.0001466785
529.375	0.0001420835
530	0.0001394603
530.625	0.000138806
531.25	0.0001242665
531.875	0.0001246512
532.5	0.0001176195
533.125	0.0001203341
533.75	0.000119056
534.375	0.0001182775
535	0.0001216638
535.625	0.0001201574
536.25	0.0001210518
536.875	0.0001354979
537.5	0.0001298084
538.125	0.000128439
538.75	0.0001269561
539.375	0.0001169644
540	0.0001258094
540.625	0.0001203689
541.25	0.0001200153
541.875	0.0001080695
542.5	0.0001073763
543.125	0.0001106596
543.75	0.0001062497
544.375	0.0001088743
545	0.0001072846
545.625	0.0001000619
546.25	0.0001056869
546.875	0.0001120167
547.5	0.0001083224
548.125	0.0001195392
548.75	0.0001139507
549.375	0.0001149146
550	0.0001121618
550.625	0.0001200105
551.25	0.0001227181
551.875	0.0001127041
552.5	0.0001117293
553.125	0.0001033171
553.75	0.000103898
554.375	0.000106733
555	0.0001066955
555.625	9.265705e-5
556.25	0.0001026897
556.875	0.000103729
557.5	0.0001113937
558.125	0.000114285
558.75	0.0001203069
559.375	0.0001191175
560	0.0001188642
560.625	0.0001252484
561.25	0.0001206484
561.875	0.0001242647
562.5	0.0001220069
563.125	0.0001183319
563.75	0.0001088086
564.375	0.0001210357
565	0.0001206711
565.625	0.000115779
566.25	0.000115121
566.875	0.0001142543
567.5	0.0001144599
568.125	0.0001227906
568.75	0.0001278025
569.375	0.0001248817
570	0.0001274036
570.625	0.0001312756
571.25	0.0001369897
571.875	0.0001380751
572.5	0.0001459022
573.125	0.0001406221
573.75	0.0001339172
574.375	0.0001403149
575	0.0001370928
575.625	0.0001357517
576.25	0.0001331211
576.875	0.000124253
577.5	0.0001258372
578.125	0.0001309488
578.75	0.0001387317
579.375	0.0001411365
580	0.0001400177
580.625	0.0001475071
581.25	0.000146775
581.875	0.0001508773
582.5	0.0001613482
583.125	0.0001517533
583.75	0.0001502529
584.375	0.0001485494
585	0.0001457868
585.625	0.0001540353
586.25	0.0001467265
586.875	0.0001456816
587.5	0.000139915
588.125	0.0001394049
588.75	0.0001495614
589.375	0.0001443101
590	0.0001457789
590.625	0.000147115
591.25	0.0001437072
591.875	0.0001520133
592.5	0.0001571197
593.125	0.0001567515
593.75	0.000162763
594.375	0.0001503571
595	0.0001560338
595.625	0.0001549342
596.25	0.0001560016
596.875	0.0001538668
597.5	0.0001379841
598.125	0.0001377148
598.75	0.0001342114
599.375	0.0001388927
600	0.0001400165
600.625	0.0001367435
601.25	0.0001366915
601.875	0.0001474256
602.5	0.0001449636
603.125	0.0001555351
603.75	0.0001487124
604.375	0.000146944
605	0.0001434511
605.625	0.0001387487
606.25	0.000144928
606.875	0.0001368538
607.5	0.0001378773
608.125	0.0001275849
608.75	0.0001244286
609.375	0.0001278333
610	0.0001316848
610.625	0.0001222808
611.25	0.0001231667
611.875	0.0001188019
612.5	0.0001239765
613.125	0.0001314983
613.75	0.0001293041
614.375	0.0001303161
615	0.0001240196
615.625	0.0001306512
616.25	0.0001274246
616.875	0.000127593
617.5	0.0001256435
618.125	0.0001189239
618.75	0.0001068756
619.375	0.0001077096
620	0.0001075479
620.625	0.000101044
621.25	0.0001042986
621.875	9.654512e-5
622.5	0.000103493
623.125	0.0001076666
623.75	0.0001198146
624.375	0.0001117194
625	0.0001085019
625.625	0.0001067323
626.25	0.0001090866
626.875	0.0001045017
627.5	0.0001074627
628.125	0.0001005699
628.75	8.943919e-5
629.375	9.33163e-5
630	8.699432e-5
630.625	8.938916e-5
631.25	8.483887e-5
631.875	8.226778e-5
632.5	7.477565e-5
633.125	8.009577e-5
633.75	8.813031e-5
634.375	8.707788e-5
635	8.080104e-5
635.625	8.368977e-5
636.25	8.10956e-5
636.875	8.269244e-5
637.5	8.991689e-5
638.125	7.960814e-5
638.75	7.607928e-5
639.375	7.152661e-5
640	6.509856e-5
640.625	6.070599e-5
641.25	5.606207e-5
641.875	5.375688e-5
642.5	4.277774e-5
643.125	4.288466e-5
643.75	5.37655e-5
644.375	5.480137e-5
645	5.419556e-5
645.625	5.590687e-5
646.25	4.646076e-5
646.875	5.198086e-5
647.5	5.411678e-5
648.125	4.874986e-5
648.75	4.686331e-5
649.375	3.854962e-5
650	3.584555e-5
650.625	3.087735e-5
651.25	2.808994e-5
651.875	3.020863e-5
652.5	1.758386e-5
653.125	1.82097e-5
653.75	1.50181e-5
