Source File Name:	5,2,4
Signal:	FFT - Vib Velocity - Mag. & Phase

Frequency	Magnitude	Phase
[ Hz ]	[ m/s ]	[ ° ]
20	0.02279608	-105.9671
20.5	0.02617106	-148.62
21	0.02779947	169.2174
21.5	0.03107264	125.2271
22	0.03371915	82.19689
22.5	0.03686703	36.55458
23	0.03987319	-14.64196
23.5	0.04019871	-65.89801
24	0.03531998	-119.4891
24.5	0.02957542	-172.0308
25	0.02383274	150.054
25.5	0.01779223	106.6174
26	0.01513204	69.13149
26.5	0.01311395	36.09923
27	0.01245388	5.070485
27.5	0.01157306	-33.27355
28	0.01059742	-70.13786
28.5	0.009627114	-106.8756
29	0.008884365	-139.3013
29.5	0.008620232	-176.6191
30	0.007753585	145.7503
30.5	0.006889905	107.2836
31	0.00645303	70.8854
31.5	0.006376273	33.97057
32	0.006148434	1.726608
32.5	0.005539294	-33.71148
33	0.004768058	-72.70815
33.5	0.004524654	-79.74569
34	0.003476713	-129.727
34.5	0.003589049	-158.1316
35	0.003241206	166.6807
35.5	0.002969501	129.0004
36	0.002974886	104.1426
36.5	0.003622378	85.14056
37	0.004274505	53.5088
37.5	0.004447289	15.57765
38	0.004414037	-23.51534
38.5	0.004753431	-61.01532
39	0.005476479	-98.72364
39.5	0.005666891	-139.6965
40	0.004953563	178.2419
40.5	0.004844114	144.314
41	0.00501122	102.1405
41.5	0.004807103	63.63575
42	0.004406224	28.29992
42.5	0.004140433	-8.578843
43	0.004198481	-44.81539
43.5	0.004336988	-83.98101
44	0.003646627	-117.9412
44.5	0.003176463	-143.6496
45	0.003028093	173.1211
45.5	0.003118392	134.5889
46	0.003428173	100.6091
46.5	0.003217824	67.42036
47	0.002738706	42.75389
47.5	0.002910565	6.529035
48	0.003168448	-31.13885
48.5	0.00321851	-65.68172
49	0.003385672	-88.89211
49.5	0.002727517	-143.0511
50	0.00286321	174.0012
50.5	0.002890507	143.7735
51	0.003148134	112.2739
51.5	0.003228999	76.2835
52	0.002688769	30.22921
52.5	0.002531925	-4.664155
53	0.002837572	-40.0704
53.5	0.00304534	-78.84219
54	0.002573529	-120.7986
54.5	0.001986706	-161.106
55	0.002000395	160.0363
55.5	0.002043045	124.5357
56	0.001501132	81.58499
56.5	0.0009679951	44.05315
57	0.000802903	-14.99551
57.5	0.0007874874	-29.28681
58	0.0005216008	10.85187
58.5	0.001057646	-2.282839
59	0.001085689	-35.08639
59.5	0.0008320936	-68.21883
60	0.001377227	-118.1154
60.5	0.001603606	-164.4351
61	0.001934454	161.5604
61.5	0.001954398	112.1156
62	0.001595982	64.30165
62.5	0.001518055	40.06572
63	0.001884368	5.793571
63.5	0.001660617	-43.78759
64	0.001377409	-100.0556
64.5	0.0009564626	-162.4713
65	0.001039639	-158.8107
65.5	0.001286233	165.2995
66	0.0008029281	104.7957
66.5	0.0002318399	50.75401
67	0.0005311694	-7.98738
67.5	0.0003740393	-88.74643
68	0.0002522013	156.108
68.5	0.0005809011	112.9849
69	0.0008281581	71.97566
69.5	0.0006957015	19.61313
70	0.000830144	-22.89495
70.5	0.001290655	-56.11757
71	0.00136462	-79.41827
71.5	0.001783503	-124.8582
72	0.001461897	176.0017
72.5	0.001486949	134.2212
73	0.001757399	114.7025
73.5	0.00206487	76.99905
74	0.002050401	36.90255
74.5	0.001944437	-16.26992
75	0.001481653	-51.14484
75.5	0.001406918	-75.20856
76	0.001658408	-100.5613
76.5	0.001565675	-146.917
77	0.001250168	-179.271
77.5	0.001349415	167.8212
78	0.002389297	147.8522
78.5	0.002568642	107.6914
79	0.002721722	67.32644
79.5	0.002702501	27.54283
80	0.003662662	-11.72281
80.5	0.004089418	-51.29861
81	0.004108304	-94.00584
81.5	0.003911013	-131.1702
82	0.004301837	-174.7732
82.5	0.004310211	148.4199
83	0.004250116	107.6359
83.5	0.003832717	68.90464
84	0.003882038	31.83826
84.5	0.004084583	-5.623611
85	0.003931881	-45.52119
85.5	0.003378252	-74.67654
86	0.00315959	-112.4613
86.5	0.00316547	-144.6482
87	0.003468611	176.3118
87.5	0.003406826	140.7427
88	0.00272538	112.647
88.5	0.00309355	84.89123
89	0.003005292	48.87576
89.5	0.003387534	16.75596
90	0.003397493	-13.59153
90.5	0.003639979	-43.79332
91	0.004140376	-81.88179
91.5	0.004519865	-122.3423
92	0.004784535	-155.5139
92.5	0.005342629	166.9319
93	0.005026376	128.9338
93.5	0.005192895	90.03617
94	0.005330352	50.60376
94.5	0.005301949	13.56966
95	0.005319519	-16.44394
95.5	0.00539742	-57.50619
96	0.00523865	-94.01547
96.5	0.00513992	-128.1567
97	0.005378432	-158.8536
97.5	0.005516281	164.5477
98	0.005512858	125.4688
98.5	0.005302439	88.14151
99	0.00548656	57.25235
99.5	0.005442294	25.32414
100	0.005813477	-6.095625
100.5	0.005864323	-43.90594
101	0.006090156	-80.16311
101.5	0.006123672	-111.6167
102	0.007153164	-144.0815
102.5	0.007601219	178.9226
103	0.007733283	138.4477
103.5	0.008035368	104.5704
104	0.008702411	67.74039
104.5	0.009027869	31.42028
105	0.009240368	-7.826915
105.5	0.00937281	-46.20638
106	0.009458023	-83.44625
106.5	0.009688118	-117.0118
107	0.009798353	-153.3869
107.5	0.009991924	170.7929
108	0.01009034	132.4448
108.5	0.01038558	98.62227
109	0.01080161	62.85964
109.5	0.0112029	26.19257
110	0.01111972	-9.065598
110.5	0.01197301	-45.18315
111	0.01232608	-81.43584
111.5	0.01264712	-117.0832
112	0.01283984	-152.6939
112.5	0.01343908	171.6357
113	0.01450983	136.4629
113.5	0.01572575	99.5629
114	0.01662046	62.44688
114.5	0.01762579	23.76611
115	0.01815251	-14.5093
115.5	0.01927571	-51.74123
116	0.0205678	-89.25653
116.5	0.02156674	-129.0079
117	0.02239925	-168.0475
117.5	0.02321914	152.3606
118	0.02422279	113.7724
118.5	0.02511139	74.1949
119	0.0258112	34.0343
119.5	0.02648039	-6.743167
120	0.0271226	-47.47721
120.5	0.02693759	-88.37686
121	0.02615969	-128.572
121.5	0.02553109	-168.7568
122	0.02493184	151.94
122.5	0.02411455	112.9253
123	0.02357897	75.62476
123.5	0.02313793	37.26914
124	0.02306599	-1.018373
124.5	0.02303777	-39.71765
125	0.02301556	-79.24666
125.5	0.02228296	-119.3784
126	0.02144085	-159.5649
126.5	0.02048042	161.0124
127	0.01976307	121.733
127.5	0.01855228	82.46521
128	0.01693483	43.75733
128.5	0.01564992	6.583498
129	0.01495633	-30.96771
129.5	0.01359972	-66.98841
130	0.01292547	-102.4806
130.5	0.01209308	-139.6351
131	0.0111412	-176.2003
131.5	0.01059487	150.0381
132	0.01004126	114.9892
132.5	0.009584004	80.67061
133	0.008984935	44.135
133.5	0.008603456	10.34171
134	0.008429115	-22.64481
134.5	0.007968702	-58.14698
135	0.007259246	-90.78288
135.5	0.007121756	-123.6721
136	0.006897498	-158.2422
136.5	0.006891055	172.1484
137	0.006915644	140.7179
137.5	0.00697705	109.0407
138	0.007605775	77.70344
138.5	0.008428998	40.90478
139	0.008786119	4.54429
139.5	0.009017571	-31.65271
140	0.009445388	-68.02477
140.5	0.009949412	-106.6527
141	0.01071026	-146.4388
141.5	0.01077314	173.1732
142	0.01036123	133.4232
142.5	0.009967555	94.57077
143	0.009830947	56.18926
143.5	0.009755657	17.60193
144	0.009359527	-21.11857
144.5	0.008492428	-60.35138
145	0.00787873	-96.45713
145.5	0.007828824	-132.4478
146	0.007498555	-170.0547
146.5	0.006918345	153.3238
147	0.006550963	114.8967
147.5	0.005933068	79.89963
148	0.005761328	46.21334
148.5	0.00552169	10.5323
149	0.004842057	-23.69606
149.5	0.004658215	-56.75132
150	0.004513591	-93.97673
150.5	0.00433627	-126.1435
151	0.004209371	-160.345
151.5	0.003862183	168.0712
152	0.003985233	135.4004
152.5	0.004044245	95.0348
153	0.003512395	60.21301
153.5	0.003314207	33.54734
154	0.003183569	1.325895
154.5	0.003386867	-36.72094
155	0.003290402	-73.00811
155.5	0.002989366	-102.8295
156	0.003233689	-128.6941
156.5	0.003250041	-171.6503
157	0.00286327	150.8805
157.5	0.002886577	115.6526
158	0.002699152	83.48536
158.5	0.00234694	54.26221
159	0.002163617	20.30042
159.5	0.001836458	-8.041308
160	0.002008101	-28.99755
160.5	0.00205603	-52.11444
161	0.002371527	-79.79437
161.5	0.002491761	-108.5941
162	0.003090899	-145.27
162.5	0.003748043	174.7309
163	0.00362042	132.677
163.5	0.00321954	107.5556
164	0.003680668	78.23866
164.5	0.004285431	38.58258
165	0.004220054	-4.213196
165.5	0.004178945	-35.58572
166	0.004237863	-66.91714
166.5	0.004382633	-101.8498
167	0.00458455	-136.0036
167.5	0.005123387	-169.8756
168	0.005192917	156.058
168.5	0.005434016	121.6261
169	0.005679586	85.81896
169.5	0.00614957	47.95101
170	0.006350871	13.61409
170.5	0.006606007	-19.44045
171	0.006996042	-52.56136
171.5	0.007575638	-91.78416
172	0.007840535	-126.9623
172.5	0.008437902	-162.7769
173	0.008917218	161.1365
173.5	0.009415059	125.2788
174	0.010255	87.9015
174.5	0.01072475	49.90314
175	0.01145165	15.20131
175.5	0.01211016	-22.53717
176	0.01288695	-60.83744
176.5	0.01375185	-100.07
177	0.01451691	-138.376
177.5	0.01525719	-174.9624
178	0.01669788	146.1298
178.5	0.01722995	104.2477
179	0.01798197	64.27767
179.5	0.01854462	24.39999
180	0.01906062	-15.73971
180.5	0.01945096	-56.84922
181	0.01964151	-99.00555
181.5	0.01910254	-139.2517
182	0.01894422	-178.8445
182.5	0.01832554	140.6509
183	0.01774224	99.89828
183.5	0.0172623	60.47164
184	0.01665386	20.93254
184.5	0.0153989	-17.24454
185	0.01463761	-55.55771
185.5	0.01375705	-92.67094
186	0.01340765	-130.0578
186.5	0.01301818	-166.8525
187	0.01246845	154.5636
187.5	0.01169795	117.4306
188	0.01116165	81.05545
188.5	0.01101227	46.3978
189	0.01053816	8.761337
189.5	0.01004517	-27.98119
190	0.009508292	-65.82746
190.5	0.009396879	-101.7679
191	0.009177544	-138.7196
191.5	0.008505479	-173.7537
192	0.007896437	150.7755
192.5	0.007907735	113.5415
193	0.007225708	77.71056
193.5	0.007169347	45.35502
194	0.006743236	8.617235
194.5	0.006444729	-26.46911
195	0.006259361	-59.79823
195.5	0.006244767	-94.09133
196	0.006086614	-124.351
196.5	0.006077146	-161.8102
197	0.005860997	161.3052
197.5	0.00584591	125.5019
198	0.00574213	91.95179
198.5	0.005637992	59.57034
199	0.005664944	26.69685
199.5	0.005236195	-10.01044
200	0.005647504	-38.457
200.5	0.006224956	-76.89067
201	0.006166333	-115.0786
201.5	0.005900698	-149.8794
202	0.006357495	174.8033
202.5	0.006618169	137.5556
203	0.006870296	98.50912
203.5	0.006290036	61.21466
204	0.006021558	23.99926
204.5	0.006132433	-14.11542
205	0.006235706	-51.97437
205.5	0.005860537	-87.80913
206	0.005455284	-124.3103
206.5	0.005060858	-157.6829
207	0.005271486	165.7224
207.5	0.00516768	129.9308
208	0.004926962	91.72048
208.5	0.004479002	57.87009
209	0.004362076	20.91655
209.5	0.004325386	-9.081497
210	0.004316885	-40.12539
210.5	0.004507678	-76.22276
211	0.004051493	-115.2411
211.5	0.003797451	-149.1927
212	0.003904267	179.1721
212.5	0.00442556	148.054
213	0.004487176	110.8419
213.5	0.004283312	73.28548
214	0.004197188	39.26116
214.5	0.004697497	1.313612
215	0.004251452	-37.89864
215.5	0.003912813	-73.52291
216	0.003599756	-105.554
216.5	0.003940542	-140.9523
217	0.004205619	-173.8319
217.5	0.003793712	151.0809
218	0.003675274	121.2544
218.5	0.003913641	82.12797
219	0.004053194	45.71553
219.5	0.004328542	9.783215
220	0.004285201	-27.99983
220.5	0.003991737	-63.38454
221	0.004174644	-101.6152
221.5	0.003875706	-143.9495
222	0.003573838	-174.087
222.5	0.003283781	151.1524
223	0.003369431	116.3715
223.5	0.003202872	80.77953
224	0.0032836	46.83046
224.5	0.003327598	20.58429
225	0.003308565	-15.99303
225.5	0.002963399	-51.65542
226	0.003237748	-86.79274
226.5	0.003648732	-127.4583
227	0.003113614	-164.5871
227.5	0.002910168	171.7074
228	0.003210691	136.2543
228.5	0.003286172	98.80553
229	0.00329441	62.51926
229.5	0.003233786	32.49902
230	0.003027448	-6.609451
230.5	0.003189555	-42.8728
231	0.003302034	-76.71971
231.5	0.003486702	-111.4088
232	0.003228758	-146.8497
232.5	0.002917224	177.7981
233	0.002813586	147.0333
233.5	0.003049055	113.7902
234	0.003384708	83.03513
234.5	0.003703928	48.41891
235	0.003695965	7.420363
235.5	0.003515452	-26.63885
236	0.003952668	-57.53008
236.5	0.004468383	-101.4423
237	0.003972938	-140.0262
237.5	0.003753912	-178.8688
238	0.003949717	145.3012
238.5	0.004108157	108.7244
239	0.003810331	72.24886
239.5	0.00288152	39.93013
240	0.003048559	13.56908
240.5	0.003437996	-23.7514
241	0.003466715	-58.7195
241.5	0.003724859	-87.77876
242	0.003907089	-123.418
242.5	0.004274187	-160.7818
243	0.004653885	158.6254
243.5	0.004152152	122.32
244	0.004296368	89.65434
244.5	0.004464276	50.85843
245	0.004497702	8.830626
245.5	0.00449627	-27.00288
246	0.004241954	-62.32691
246.5	0.004180717	-88.47983
247	0.004491078	-126.7701
247.5	0.004673616	-168.7785
248	0.004568456	155.901
248.5	0.004784367	119.6832
249	0.004715306	83.49767
249.5	0.004629874	45.03661
250	0.004594784	7.983033
250.5	0.004774288	-26.2248
251	0.004491903	-64.44969
251.5	0.004241601	-101.1272
252	0.004228257	-136.2887
252.5	0.004640265	-171.8864
253	0.004451391	152.3231
253.5	0.004082692	118.7317
254	0.004100279	87.85094
254.5	0.004266676	48.27544
255	0.004592866	13.67297
255.5	0.004661891	-22.33881
256	0.004753224	-60.5465
256.5	0.004677662	-95.6108
257	0.004971382	-131.3537
257.5	0.005031766	-169.3626
258	0.005027855	156.0802
258.5	0.005190342	116.7974
259	0.005186909	75.49583
259.5	0.005213313	35.74596
260	0.00528834	0.9329924
260.5	0.005103571	-35.31501
261	0.005124953	-76.3696
261.5	0.004536159	-118.3412
262	0.004446552	-154.231
262.5	0.004445313	169.4931
263	0.003676583	129.6787
263.5	0.003356918	101.1142
264	0.003562007	67.2209
264.5	0.003549541	35.72959
265	0.003613676	0.294153
265.5	0.003343272	-37.66373
266	0.003416845	-73.0133
266.5	0.003555733	-108.5492
267	0.003643205	-145.9511
267.5	0.003492624	-178.1107
268	0.003116081	142.8491
268.5	0.003213546	112.5985
269	0.003521071	72.71025
269.5	0.003547823	29.66523
270	0.003061813	-1.45758
270.5	0.003310153	-35.20488
271	0.003347095	-74.36013
271.5	0.003398443	-114.4186
272	0.003061268	-151.6287
272.5	0.002721371	168.1558
273	0.002433668	125.7761
273.5	0.002408088	91.62262
274	0.002268516	59.98689
274.5	0.002189164	21.46332
275	0.001282178	-13.83496
275.5	0.0007636591	-37.27329
276	0.001183006	-35.95947
276.5	0.001432374	-71.00652
277	0.001544989	-104.8975
277.5	0.00147018	-126.8252
278	0.001984651	-165.6478
278.5	0.002255441	162.1438
279	0.002709347	124.149
279.5	0.002747485	87.35272
280	0.002813822	49.72377
280.5	0.00290223	5.721497
281	0.00303653	-30.09341
281.5	0.003167913	-63.69746
282	0.003328908	-102.6791
282.5	0.003181452	-135.5807
283	0.003459053	179.8062
283.5	0.003304239	136.725
284	0.00296535	102.9957
284.5	0.003172812	73.18901
285	0.003012724	31.86809
285.5	0.003168383	-1.742195
286	0.0031087	-36.28533
286.5	0.003020415	-70.90767
287	0.002881387	-109.6905
287.5	0.002633702	-146.6565
288	0.003009431	-179.344
288.5	0.003453095	144.5251
289	0.002870339	104.9972
289.5	0.002953849	81.41682
290	0.003195082	43.83047
290.5	0.003312494	4.023462
291	0.003210527	-30.95331
291.5	0.00327557	-69.09254
292	0.003428352	-100.2889
292.5	0.003866912	-141.5024
293	0.004176478	-179.4248
293.5	0.004054022	139.295
294	0.003695786	100.2394
294.5	0.003691152	61.37646
295	0.003754572	21.03121
295.5	0.00368105	-21.44198
296	0.003000653	-53.73073
296.5	0.002817448	-89.30352
297	0.002697046	-124.9222
297.5	0.002421584	-165.4409
298	0.002307007	170.7856
298.5	0.00214125	139.7852
299	0.002398807	106.8744
299.5	0.002400861	79.35411
300	0.002888431	41.22777
300.5	0.002911813	9.990501
301	0.002961549	-29.73919
301.5	0.002812494	-75.03481
302	0.002816025	-111.2534
302.5	0.003006279	-143.2941
303	0.00324314	-179.8362
303.5	0.003081482	143.5255
304	0.003066604	102.6985
304.5	0.002710686	69.5367
305	0.002846073	32.99488
305.5	0.002815576	-3.680762
306	0.002553147	-41.98803
306.5	0.002985945	-76.0974
307	0.002716086	-114.7781
307.5	0.002841369	-146.1351
308	0.002725359	177.2088
308.5	0.002363725	138.9468
309	0.002430283	103.0432
309.5	0.002596852	67.13024
310	0.002499256	34.97701
310.5	0.002521204	1.711376
311	0.002187938	-39.8999
311.5	0.002343722	-66.57022
312	0.002392617	-103.7866
312.5	0.002286783	-143.7995
313	0.002025754	-168.3873
313.5	0.002279818	157.5179
314	0.002989965	130.3296
314.5	0.003339683	88.90688
315	0.003214739	48.68052
315.5	0.003062791	13.17542
316	0.003514922	-27.47087
316.5	0.00384687	-72.05798
317	0.003901672	-111.3666
317.5	0.003885635	-154.0882
318	0.0033927	167.5621
318.5	0.003347323	127.7556
319	0.003243237	91.2523
319.5	0.002697819	45.76777
320	0.00241136	13.69009
320.5	0.00225511	-18.14959
321	0.002608983	-55.6672
321.5	0.002365663	-85.21693
322	0.002330163	-118.1155
322.5	0.002228781	-150.2103
323	0.002403449	164.7567
323.5	0.002297553	127.1843
324	0.00240191	99.68127
324.5	0.002583749	61.2719
325	0.002509544	17.82107
325.5	0.002277024	-19.69442
326	0.002538165	-60.67599
326.5	0.001963335	-97.41029
327	0.001771836	-134.9745
327.5	0.002149271	-165.1552
328	0.002083558	156.9982
328.5	0.002358497	123.8043
329	0.001940494	78.40876
329.5	0.001746364	37.05361
330	0.001467936	-6.913373
330.5	0.00140438	-47.3877
331	0.001451293	-71.24291
331.5	0.001415566	-112.4475
332	0.0009539563	-152.7143
332.5	0.0009345372	-157.342
333	0.000862669	152.9015
333.5	0.0007273952	133.7747
334	0.00055087	112.7537
334.5	0.0005909821	39.16024
335	0.0006972512	28.20502
335.5	0.0008378931	-5.623985
336	0.0007800136	-15.45244
336.5	0.0005303494	-26.57965
337	0.000745728	-57.1081
337.5	0.001068752	-87.01691
338	0.001453053	-139.8583
338.5	0.00150107	174.8966
339	0.001366168	141.2206
339.5	0.001582817	97.1669
340	0.001823657	59.91737
340.5	0.001707619	12.30872
341	0.001641313	-29.68595
341.5	0.001264702	-77.61481
342	0.001338425	-115.7898
342.5	0.001278407	-142.9077
343	0.001267705	177.571
343.5	0.0008582004	160.1071
344	0.0004461112	106.1123
344.5	0.0005202317	110.6099
345	0.000798421	72.00338
345.5	0.001026805	27.76633
346	0.00117789	-2.776805
346.5	0.001306429	-39.99931
347	0.001360759	-91.98946
347.5	0.001114285	-107.9
348	0.001051928	-136.5472
348.5	0.001021705	-174.7845
349	0.0009800363	134.1323
349.5	0.001482945	92.96538
350	0.001464903	63.68434
350.5	0.001661094	17.49405
351	0.00114183	-12.09754
351.5	0.001352658	-53.0661
352	0.001622708	-95.04428
352.5	0.001275717	-153.6807
353	0.001033938	163.2434
353.5	0.0009594496	125.5287
354	0.0006568786	82.7346
354.5	0.0005768188	61.77678
355	0.0002579316	38.98355
355.5	0.0001130742	92.8747
356	0.0004400694	75.8618
356.5	0.0005788542	-4.122762
357	0.001092555	-58.42406
357.5	0.0005883455	-84.01126
358	0.0006761586	-94.04322
358.5	0.0007885566	-116.6066
359	0.0007903548	177.077
359.5	0.001172905	147.8938
360	0.001170355	100.5813
360.5	0.0009342975	54.10361
361	0.001039135	32.74249
361.5	0.001494625	5.566986
362	0.00185376	-35.45336
362.5	0.001538706	-80.53382
363	0.001428244	-126.425
363.5	0.001444005	-169.7296
364	0.001699342	139.2293
364.5	0.001766707	106.036
365	0.00124304	57.96269
365.5	0.001118132	40.96964
366	0.001009664	7.611904
366.5	0.001112829	-37.44904
367	0.0007826919	-75.917
367.5	0.0005276192	-102.1974
368	0.0006779647	-117.8833
368.5	0.001174862	-160.6484
369	0.001163724	160.3422
369.5	0.001316444	149.2495
370	0.001388103	99.31343
370.5	0.001493997	47.75582
371	0.00137264	8.518766
371.5	0.001484289	-34.4173
372	0.001354317	-44.9071
372.5	0.001583815	-101.5672
373	0.001762301	-148.5936
373.5	0.001617991	166.7634
374	0.001608192	131.5074
374.5	0.001458055	76.07628
375	0.001440954	37.60118
375.5	0.001398866	-3.778532
376	0.0009987494	-45.45736
376.5	0.0008703822	-84.65083
377	0.0008331068	-160.5991
377.5	0.0008908024	137.2218
378	0.0004914417	99.50216
378.5	0.0004677445	26.85313
379	0.0002854755	-119.1085
379.5	0.0006240422	-138.1303
380	0.0006200123	-177.9587
380.5	0.001014043	121.4612
381	0.0008086468	55.29338
381.5	0.0005519759	51.52954
382	0.0004607543	42.30089
382.5	0.0007220928	-37.81311
383	0.001031076	-85.38624
383.5	0.001149714	-117.2516
384	0.001086204	-158.5662
384.5	0.0006865987	176.2474
385	0.0007692206	142.8098
385.5	0.001275272	104.2396
386	0.001113329	56.72142
386.5	0.001073683	5.058034
387	0.0006908196	-7.793266
387.5	0.001234108	-46.73745
388	0.001206573	-93.44572
388.5	0.000899318	-134.6286
389	0.001007507	-142.6913
389.5	0.0009879669	157.7274
390	0.0009968171	128.1967
390.5	0.00143579	106.148
391	0.001258683	66.34289
391.5	0.001342325	35.8926
392	0.001453537	-11.84889
392.5	0.001513912	-65.96593
393	0.001546138	-92.49758
393.5	0.001367921	-127.2756
394	0.001781128	-155.352
394.5	0.002068334	149.2562
395	0.001928744	103.3554
395.5	0.001171871	81.61858
396	0.001643739	44.47275
396.5	0.001593224	-8.190534
397	0.001797556	-52.65736
397.5	0.001879514	-91.11313
398	0.001395383	-125.0993
398.5	0.001239256	-170.8651
399	0.001070223	145.1563
399.5	0.0006863721	124.8372
400	0.0008392616	99.94448
